# Pulseq sequence file
# Created by MATLAB mr toolbox

[VERSION]
major 1
minor 5
revision 1

[DEFINITIONS]
AdcRasterTime 1e-07 
BlockDurationRaster 1e-05 
FOV 0.192 0.192 0.096 
GradientRasterTime 1e-05 
Name gre3d_8part 
RadiofrequencyRasterTime 1e-06 
TotalDuration 2.56 

# Format of blocks:
# NUM DUR RF  GX  GY  GZ  ADC  EXT
[BLOCKS]
  1  32   1   0   0   0  0  0
  2 100   0   1   2   2  0  0
  3 587   0   0   0   0  0  0
  4 202   0   3   0   0  1  0
  5 1079   0   5   4   4  0  0
  6  32   1   0   0   0  0  0
  7 100   0   1   6   2  0  0
  8 587   0   0   0   0  0  0
  9 202   0   3   0   0  1  0
 10 1079   0   5   7   4  0  0
 11  32   1   0   0   0  0  0
 12 100   0   1   8   2  0  0
 13 587   0   0   0   0  0  0
 14 202   0   3   0   0  1  0
 15 1079   0   5   9   4  0  0
 16  32   1   0   0   0  0  0
 17 100   0   1  10   2  0  0
 18 587   0   0   0   0  0  0
 19 202   0   3   0   0  1  0
 20 1079   0   5  11   4  0  0
 21  32   1   0   0   0  0  0
 22 100   0   1  12   2  0  0
 23 587   0   0   0   0  0  0
 24 202   0   3   0   0  1  0
 25 1079   0   5  13   4  0  0
 26  32   1   0   0   0  0  0
 27 100   0   1  14   2  0  0
 28 587   0   0   0   0  0  0
 29 202   0   3   0   0  1  0
 30 1079   0   5  15   4  0  0
 31  32   1   0   0   0  0  0
 32 100   0   1  16   2  0  0
 33 587   0   0   0   0  0  0
 34 202   0   3   0   0  1  0
 35 1079   0   5  17   4  0  0
 36  32   1   0   0   0  0  0
 37 100   0   1  18   2  0  0
 38 587   0   0   0   0  0  0
 39 202   0   3   0   0  1  0
 40 1079   0   5  19   4  0  0
 41  32   1   0   0   0  0  0
 42 100   0   1  20   2  0  0
 43 587   0   0   0   0  0  0
 44 202   0   3   0   0  1  0
 45 1079   0   5  21   4  0  0
 46  32   1   0   0   0  0  0
 47 100   0   1  19   2  0  0
 48 587   0   0   0   0  0  0
 49 202   0   3   0   0  1  0
 50 1079   0   5  18   4  0  0
 51  32   1   0   0   0  0  0
 52 100   0   1  17   2  0  0
 53 587   0   0   0   0  0  0
 54 202   0   3   0   0  1  0
 55 1079   0   5  16   4  0  0
 56  32   1   0   0   0  0  0
 57 100   0   1  15   2  0  0
 58 587   0   0   0   0  0  0
 59 202   0   3   0   0  1  0
 60 1079   0   5  14   4  0  0
 61  32   1   0   0   0  0  0
 62 100   0   1  13   2  0  0
 63 587   0   0   0   0  0  0
 64 202   0   3   0   0  1  0
 65 1079   0   5  12   4  0  0
 66  32   1   0   0   0  0  0
 67 100   0   1  11   2  0  0
 68 587   0   0   0   0  0  0
 69 202   0   3   0   0  1  0
 70 1079   0   5  10   4  0  0
 71  32   1   0   0   0  0  0
 72 100   0   1   9   2  0  0
 73 587   0   0   0   0  0  0
 74 202   0   3   0   0  1  0
 75 1079   0   5   8   4  0  0
 76  32   1   0   0   0  0  0
 77 100   0   1   7   2  0  0
 78 587   0   0   0   0  0  0
 79 202   0   3   0   0  1  0
 80 1079   0   5   6   4  0  0
 81  32   1   0   0   0  0  0
 82 100   0   1   2   8  0  0
 83 587   0   0   0   0  0  0
 84 202   0   3   0   0  1  0
 85 1079   0   5   4   9  0  0
 86  32   1   0   0   0  0  0
 87 100   0   1   6   8  0  0
 88 587   0   0   0   0  0  0
 89 202   0   3   0   0  1  0
 90 1079   0   5   7   9  0  0
 91  32   1   0   0   0  0  0
 92 100   0   1   8   8  0  0
 93 587   0   0   0   0  0  0
 94 202   0   3   0   0  1  0
 95 1079   0   5   9   9  0  0
 96  32   1   0   0   0  0  0
 97 100   0   1  10   8  0  0
 98 587   0   0   0   0  0  0
 99 202   0   3   0   0  1  0
100 1079   0   5  11   9  0  0
101  32   1   0   0   0  0  0
102 100   0   1  12   8  0  0
103 587   0   0   0   0  0  0
104 202   0   3   0   0  1  0
105 1079   0   5  13   9  0  0
106  32   1   0   0   0  0  0
107 100   0   1  14   8  0  0
108 587   0   0   0   0  0  0
109 202   0   3   0   0  1  0
110 1079   0   5  15   9  0  0
111  32   1   0   0   0  0  0
112 100   0   1  16   8  0  0
113 587   0   0   0   0  0  0
114 202   0   3   0   0  1  0
115 1079   0   5  17   9  0  0
116  32   1   0   0   0  0  0
117 100   0   1  18   8  0  0
118 587   0   0   0   0  0  0
119 202   0   3   0   0  1  0
120 1079   0   5  19   9  0  0
121  32   1   0   0   0  0  0
122 100   0   1  20   8  0  0
123 587   0   0   0   0  0  0
124 202   0   3   0   0  1  0
125 1079   0   5  21   9  0  0
126  32   1   0   0   0  0  0
127 100   0   1  19   8  0  0
128 587   0   0   0   0  0  0
129 202   0   3   0   0  1  0
130 1079   0   5  18   9  0  0
131  32   1   0   0   0  0  0
132 100   0   1  17   8  0  0
133 587   0   0   0   0  0  0
134 202   0   3   0   0  1  0
135 1079   0   5  16   9  0  0
136  32   1   0   0   0  0  0
137 100   0   1  15   8  0  0
138 587   0   0   0   0  0  0
139 202   0   3   0   0  1  0
140 1079   0   5  14   9  0  0
141  32   1   0   0   0  0  0
142 100   0   1  13   8  0  0
143 587   0   0   0   0  0  0
144 202   0   3   0   0  1  0
145 1079   0   5  12   9  0  0
146  32   1   0   0   0  0  0
147 100   0   1  11   8  0  0
148 587   0   0   0   0  0  0
149 202   0   3   0   0  1  0
150 1079   0   5  10   9  0  0
151  32   1   0   0   0  0  0
152 100   0   1   9   8  0  0
153 587   0   0   0   0  0  0
154 202   0   3   0   0  1  0
155 1079   0   5   8   9  0  0
156  32   1   0   0   0  0  0
157 100   0   1   7   8  0  0
158 587   0   0   0   0  0  0
159 202   0   3   0   0  1  0
160 1079   0   5   6   9  0  0
161  32   1   0   0   0  0  0
162 100   0   1   2  12  0  0
163 587   0   0   0   0  0  0
164 202   0   3   0   0  1  0
165 1079   0   5   4  13  0  0
166  32   1   0   0   0  0  0
167 100   0   1   6  12  0  0
168 587   0   0   0   0  0  0
169 202   0   3   0   0  1  0
170 1079   0   5   7  13  0  0
171  32   1   0   0   0  0  0
172 100   0   1   8  12  0  0
173 587   0   0   0   0  0  0
174 202   0   3   0   0  1  0
175 1079   0   5   9  13  0  0
176  32   1   0   0   0  0  0
177 100   0   1  10  12  0  0
178 587   0   0   0   0  0  0
179 202   0   3   0   0  1  0
180 1079   0   5  11  13  0  0
181  32   1   0   0   0  0  0
182 100   0   1  12  12  0  0
183 587   0   0   0   0  0  0
184 202   0   3   0   0  1  0
185 1079   0   5  13  13  0  0
186  32   1   0   0   0  0  0
187 100   0   1  14  12  0  0
188 587   0   0   0   0  0  0
189 202   0   3   0   0  1  0
190 1079   0   5  15  13  0  0
191  32   1   0   0   0  0  0
192 100   0   1  16  12  0  0
193 587   0   0   0   0  0  0
194 202   0   3   0   0  1  0
195 1079   0   5  17  13  0  0
196  32   1   0   0   0  0  0
197 100   0   1  18  12  0  0
198 587   0   0   0   0  0  0
199 202   0   3   0   0  1  0
200 1079   0   5  19  13  0  0
201  32   1   0   0   0  0  0
202 100   0   1  20  12  0  0
203 587   0   0   0   0  0  0
204 202   0   3   0   0  1  0
205 1079   0   5  21  13  0  0
206  32   1   0   0   0  0  0
207 100   0   1  19  12  0  0
208 587   0   0   0   0  0  0
209 202   0   3   0   0  1  0
210 1079   0   5  18  13  0  0
211  32   1   0   0   0  0  0
212 100   0   1  17  12  0  0
213 587   0   0   0   0  0  0
214 202   0   3   0   0  1  0
215 1079   0   5  16  13  0  0
216  32   1   0   0   0  0  0
217 100   0   1  15  12  0  0
218 587   0   0   0   0  0  0
219 202   0   3   0   0  1  0
220 1079   0   5  14  13  0  0
221  32   1   0   0   0  0  0
222 100   0   1  13  12  0  0
223 587   0   0   0   0  0  0
224 202   0   3   0   0  1  0
225 1079   0   5  12  13  0  0
226  32   1   0   0   0  0  0
227 100   0   1  11  12  0  0
228 587   0   0   0   0  0  0
229 202   0   3   0   0  1  0
230 1079   0   5  10  13  0  0
231  32   1   0   0   0  0  0
232 100   0   1   9  12  0  0
233 587   0   0   0   0  0  0
234 202   0   3   0   0  1  0
235 1079   0   5   8  13  0  0
236  32   1   0   0   0  0  0
237 100   0   1   7  12  0  0
238 587   0   0   0   0  0  0
239 202   0   3   0   0  1  0
240 1079   0   5   6  13  0  0
241  32   1   0   0   0  0  0
242 100   0   1   2  16  0  0
243 587   0   0   0   0  0  0
244 202   0   3   0   0  1  0
245 1079   0   5   4  17  0  0
246  32   1   0   0   0  0  0
247 100   0   1   6  16  0  0
248 587   0   0   0   0  0  0
249 202   0   3   0   0  1  0
250 1079   0   5   7  17  0  0
251  32   1   0   0   0  0  0
252 100   0   1   8  16  0  0
253 587   0   0   0   0  0  0
254 202   0   3   0   0  1  0
255 1079   0   5   9  17  0  0
256  32   1   0   0   0  0  0
257 100   0   1  10  16  0  0
258 587   0   0   0   0  0  0
259 202   0   3   0   0  1  0
260 1079   0   5  11  17  0  0
261  32   1   0   0   0  0  0
262 100   0   1  12  16  0  0
263 587   0   0   0   0  0  0
264 202   0   3   0   0  1  0
265 1079   0   5  13  17  0  0
266  32   1   0   0   0  0  0
267 100   0   1  14  16  0  0
268 587   0   0   0   0  0  0
269 202   0   3   0   0  1  0
270 1079   0   5  15  17  0  0
271  32   1   0   0   0  0  0
272 100   0   1  16  16  0  0
273 587   0   0   0   0  0  0
274 202   0   3   0   0  1  0
275 1079   0   5  17  17  0  0
276  32   1   0   0   0  0  0
277 100   0   1  18  16  0  0
278 587   0   0   0   0  0  0
279 202   0   3   0   0  1  0
280 1079   0   5  19  17  0  0
281  32   1   0   0   0  0  0
282 100   0   1  20  16  0  0
283 587   0   0   0   0  0  0
284 202   0   3   0   0  1  0
285 1079   0   5  21  17  0  0
286  32   1   0   0   0  0  0
287 100   0   1  19  16  0  0
288 587   0   0   0   0  0  0
289 202   0   3   0   0  1  0
290 1079   0   5  18  17  0  0
291  32   1   0   0   0  0  0
292 100   0   1  17  16  0  0
293 587   0   0   0   0  0  0
294 202   0   3   0   0  1  0
295 1079   0   5  16  17  0  0
296  32   1   0   0   0  0  0
297 100   0   1  15  16  0  0
298 587   0   0   0   0  0  0
299 202   0   3   0   0  1  0
300 1079   0   5  14  17  0  0
301  32   1   0   0   0  0  0
302 100   0   1  13  16  0  0
303 587   0   0   0   0  0  0
304 202   0   3   0   0  1  0
305 1079   0   5  12  17  0  0
306  32   1   0   0   0  0  0
307 100   0   1  11  16  0  0
308 587   0   0   0   0  0  0
309 202   0   3   0   0  1  0
310 1079   0   5  10  17  0  0
311  32   1   0   0   0  0  0
312 100   0   1   9  16  0  0
313 587   0   0   0   0  0  0
314 202   0   3   0   0  1  0
315 1079   0   5   8  17  0  0
316  32   1   0   0   0  0  0
317 100   0   1   7  16  0  0
318 587   0   0   0   0  0  0
319 202   0   3   0   0  1  0
320 1079   0   5   6  17  0  0
321  32   1   0   0   0  0  0
322 100   0   1   2  20  0  0
323 587   0   0   0   0  0  0
324 202   0   3   0   0  1  0
325 1079   0   5   4  21  0  0
326  32   1   0   0   0  0  0
327 100   0   1   6  20  0  0
328 587   0   0   0   0  0  0
329 202   0   3   0   0  1  0
330 1079   0   5   7  21  0  0
331  32   1   0   0   0  0  0
332 100   0   1   8  20  0  0
333 587   0   0   0   0  0  0
334 202   0   3   0   0  1  0
335 1079   0   5   9  21  0  0
336  32   1   0   0   0  0  0
337 100   0   1  10  20  0  0
338 587   0   0   0   0  0  0
339 202   0   3   0   0  1  0
340 1079   0   5  11  21  0  0
341  32   1   0   0   0  0  0
342 100   0   1  12  20  0  0
343 587   0   0   0   0  0  0
344 202   0   3   0   0  1  0
345 1079   0   5  13  21  0  0
346  32   1   0   0   0  0  0
347 100   0   1  14  20  0  0
348 587   0   0   0   0  0  0
349 202   0   3   0   0  1  0
350 1079   0   5  15  21  0  0
351  32   1   0   0   0  0  0
352 100   0   1  16  20  0  0
353 587   0   0   0   0  0  0
354 202   0   3   0   0  1  0
355 1079   0   5  17  21  0  0
356  32   1   0   0   0  0  0
357 100   0   1  18  20  0  0
358 587   0   0   0   0  0  0
359 202   0   3   0   0  1  0
360 1079   0   5  19  21  0  0
361  32   1   0   0   0  0  0
362 100   0   1  20  20  0  0
363 587   0   0   0   0  0  0
364 202   0   3   0   0  1  0
365 1079   0   5  21  21  0  0
366  32   1   0   0   0  0  0
367 100   0   1  19  20  0  0
368 587   0   0   0   0  0  0
369 202   0   3   0   0  1  0
370 1079   0   5  18  21  0  0
371  32   1   0   0   0  0  0
372 100   0   1  17  20  0  0
373 587   0   0   0   0  0  0
374 202   0   3   0   0  1  0
375 1079   0   5  16  21  0  0
376  32   1   0   0   0  0  0
377 100   0   1  15  20  0  0
378 587   0   0   0   0  0  0
379 202   0   3   0   0  1  0
380 1079   0   5  14  21  0  0
381  32   1   0   0   0  0  0
382 100   0   1  13  20  0  0
383 587   0   0   0   0  0  0
384 202   0   3   0   0  1  0
385 1079   0   5  12  21  0  0
386  32   1   0   0   0  0  0
387 100   0   1  11  20  0  0
388 587   0   0   0   0  0  0
389 202   0   3   0   0  1  0
390 1079   0   5  10  21  0  0
391  32   1   0   0   0  0  0
392 100   0   1   9  20  0  0
393 587   0   0   0   0  0  0
394 202   0   3   0   0  1  0
395 1079   0   5   8  21  0  0
396  32   1   0   0   0  0  0
397 100   0   1   7  20  0  0
398 587   0   0   0   0  0  0
399 202   0   3   0   0  1  0
400 1079   0   5   6  21  0  0
401  32   1   0   0   0  0  0
402 100   0   1   2  17  0  0
403 587   0   0   0   0  0  0
404 202   0   3   0   0  1  0
405 1079   0   5   4  16  0  0
406  32   1   0   0   0  0  0
407 100   0   1   6  17  0  0
408 587   0   0   0   0  0  0
409 202   0   3   0   0  1  0
410 1079   0   5   7  16  0  0
411  32   1   0   0   0  0  0
412 100   0   1   8  17  0  0
413 587   0   0   0   0  0  0
414 202   0   3   0   0  1  0
415 1079   0   5   9  16  0  0
416  32   1   0   0   0  0  0
417 100   0   1  10  17  0  0
418 587   0   0   0   0  0  0
419 202   0   3   0   0  1  0
420 1079   0   5  11  16  0  0
421  32   1   0   0   0  0  0
422 100   0   1  12  17  0  0
423 587   0   0   0   0  0  0
424 202   0   3   0   0  1  0
425 1079   0   5  13  16  0  0
426  32   1   0   0   0  0  0
427 100   0   1  14  17  0  0
428 587   0   0   0   0  0  0
429 202   0   3   0   0  1  0
430 1079   0   5  15  16  0  0
431  32   1   0   0   0  0  0
432 100   0   1  16  17  0  0
433 587   0   0   0   0  0  0
434 202   0   3   0   0  1  0
435 1079   0   5  17  16  0  0
436  32   1   0   0   0  0  0
437 100   0   1  18  17  0  0
438 587   0   0   0   0  0  0
439 202   0   3   0   0  1  0
440 1079   0   5  19  16  0  0
441  32   1   0   0   0  0  0
442 100   0   1  20  17  0  0
443 587   0   0   0   0  0  0
444 202   0   3   0   0  1  0
445 1079   0   5  21  16  0  0
446  32   1   0   0   0  0  0
447 100   0   1  19  17  0  0
448 587   0   0   0   0  0  0
449 202   0   3   0   0  1  0
450 1079   0   5  18  16  0  0
451  32   1   0   0   0  0  0
452 100   0   1  17  17  0  0
453 587   0   0   0   0  0  0
454 202   0   3   0   0  1  0
455 1079   0   5  16  16  0  0
456  32   1   0   0   0  0  0
457 100   0   1  15  17  0  0
458 587   0   0   0   0  0  0
459 202   0   3   0   0  1  0
460 1079   0   5  14  16  0  0
461  32   1   0   0   0  0  0
462 100   0   1  13  17  0  0
463 587   0   0   0   0  0  0
464 202   0   3   0   0  1  0
465 1079   0   5  12  16  0  0
466  32   1   0   0   0  0  0
467 100   0   1  11  17  0  0
468 587   0   0   0   0  0  0
469 202   0   3   0   0  1  0
470 1079   0   5  10  16  0  0
471  32   1   0   0   0  0  0
472 100   0   1   9  17  0  0
473 587   0   0   0   0  0  0
474 202   0   3   0   0  1  0
475 1079   0   5   8  16  0  0
476  32   1   0   0   0  0  0
477 100   0   1   7  17  0  0
478 587   0   0   0   0  0  0
479 202   0   3   0   0  1  0
480 1079   0   5   6  16  0  0
481  32   1   0   0   0  0  0
482 100   0   1   2  13  0  0
483 587   0   0   0   0  0  0
484 202   0   3   0   0  1  0
485 1079   0   5   4  12  0  0
486  32   1   0   0   0  0  0
487 100   0   1   6  13  0  0
488 587   0   0   0   0  0  0
489 202   0   3   0   0  1  0
490 1079   0   5   7  12  0  0
491  32   1   0   0   0  0  0
492 100   0   1   8  13  0  0
493 587   0   0   0   0  0  0
494 202   0   3   0   0  1  0
495 1079   0   5   9  12  0  0
496  32   1   0   0   0  0  0
497 100   0   1  10  13  0  0
498 587   0   0   0   0  0  0
499 202   0   3   0   0  1  0
500 1079   0   5  11  12  0  0
501  32   1   0   0   0  0  0
502 100   0   1  12  13  0  0
503 587   0   0   0   0  0  0
504 202   0   3   0   0  1  0
505 1079   0   5  13  12  0  0
506  32   1   0   0   0  0  0
507 100   0   1  14  13  0  0
508 587   0   0   0   0  0  0
509 202   0   3   0   0  1  0
510 1079   0   5  15  12  0  0
511  32   1   0   0   0  0  0
512 100   0   1  16  13  0  0
513 587   0   0   0   0  0  0
514 202   0   3   0   0  1  0
515 1079   0   5  17  12  0  0
516  32   1   0   0   0  0  0
517 100   0   1  18  13  0  0
518 587   0   0   0   0  0  0
519 202   0   3   0   0  1  0
520 1079   0   5  19  12  0  0
521  32   1   0   0   0  0  0
522 100   0   1  20  13  0  0
523 587   0   0   0   0  0  0
524 202   0   3   0   0  1  0
525 1079   0   5  21  12  0  0
526  32   1   0   0   0  0  0
527 100   0   1  19  13  0  0
528 587   0   0   0   0  0  0
529 202   0   3   0   0  1  0
530 1079   0   5  18  12  0  0
531  32   1   0   0   0  0  0
532 100   0   1  17  13  0  0
533 587   0   0   0   0  0  0
534 202   0   3   0   0  1  0
535 1079   0   5  16  12  0  0
536  32   1   0   0   0  0  0
537 100   0   1  15  13  0  0
538 587   0   0   0   0  0  0
539 202   0   3   0   0  1  0
540 1079   0   5  14  12  0  0
541  32   1   0   0   0  0  0
542 100   0   1  13  13  0  0
543 587   0   0   0   0  0  0
544 202   0   3   0   0  1  0
545 1079   0   5  12  12  0  0
546  32   1   0   0   0  0  0
547 100   0   1  11  13  0  0
548 587   0   0   0   0  0  0
549 202   0   3   0   0  1  0
550 1079   0   5  10  12  0  0
551  32   1   0   0   0  0  0
552 100   0   1   9  13  0  0
553 587   0   0   0   0  0  0
554 202   0   3   0   0  1  0
555 1079   0   5   8  12  0  0
556  32   1   0   0   0  0  0
557 100   0   1   7  13  0  0
558 587   0   0   0   0  0  0
559 202   0   3   0   0  1  0
560 1079   0   5   6  12  0  0
561  32   1   0   0   0  0  0
562 100   0   1   2   9  0  0
563 587   0   0   0   0  0  0
564 202   0   3   0   0  1  0
565 1079   0   5   4   8  0  0
566  32   1   0   0   0  0  0
567 100   0   1   6   9  0  0
568 587   0   0   0   0  0  0
569 202   0   3   0   0  1  0
570 1079   0   5   7   8  0  0
571  32   1   0   0   0  0  0
572 100   0   1   8   9  0  0
573 587   0   0   0   0  0  0
574 202   0   3   0   0  1  0
575 1079   0   5   9   8  0  0
576  32   1   0   0   0  0  0
577 100   0   1  10   9  0  0
578 587   0   0   0   0  0  0
579 202   0   3   0   0  1  0
580 1079   0   5  11   8  0  0
581  32   1   0   0   0  0  0
582 100   0   1  12   9  0  0
583 587   0   0   0   0  0  0
584 202   0   3   0   0  1  0
585 1079   0   5  13   8  0  0
586  32   1   0   0   0  0  0
587 100   0   1  14   9  0  0
588 587   0   0   0   0  0  0
589 202   0   3   0   0  1  0
590 1079   0   5  15   8  0  0
591  32   1   0   0   0  0  0
592 100   0   1  16   9  0  0
593 587   0   0   0   0  0  0
594 202   0   3   0   0  1  0
595 1079   0   5  17   8  0  0
596  32   1   0   0   0  0  0
597 100   0   1  18   9  0  0
598 587   0   0   0   0  0  0
599 202   0   3   0   0  1  0
600 1079   0   5  19   8  0  0
601  32   1   0   0   0  0  0
602 100   0   1  20   9  0  0
603 587   0   0   0   0  0  0
604 202   0   3   0   0  1  0
605 1079   0   5  21   8  0  0
606  32   1   0   0   0  0  0
607 100   0   1  19   9  0  0
608 587   0   0   0   0  0  0
609 202   0   3   0   0  1  0
610 1079   0   5  18   8  0  0
611  32   1   0   0   0  0  0
612 100   0   1  17   9  0  0
613 587   0   0   0   0  0  0
614 202   0   3   0   0  1  0
615 1079   0   5  16   8  0  0
616  32   1   0   0   0  0  0
617 100   0   1  15   9  0  0
618 587   0   0   0   0  0  0
619 202   0   3   0   0  1  0
620 1079   0   5  14   8  0  0
621  32   1   0   0   0  0  0
622 100   0   1  13   9  0  0
623 587   0   0   0   0  0  0
624 202   0   3   0   0  1  0
625 1079   0   5  12   8  0  0
626  32   1   0   0   0  0  0
627 100   0   1  11   9  0  0
628 587   0   0   0   0  0  0
629 202   0   3   0   0  1  0
630 1079   0   5  10   8  0  0
631  32   1   0   0   0  0  0
632 100   0   1   9   9  0  0
633 587   0   0   0   0  0  0
634 202   0   3   0   0  1  0
635 1079   0   5   8   8  0  0
636  32   1   0   0   0  0  0
637 100   0   1   7   9  0  0
638 587   0   0   0   0  0  0
639 202   0   3   0   0  1  0
640 1079   0   5   6   8  0  0

# Format of RF events:
# id ampl. mag_id phase_id time_shape_id center delay freqPPM phasePPM freq phase use
# ..   Hz      ..       ..            ..     us    us     ppm  rad/MHz   Hz   rad  ..
# Field 'use' is the initial of: 
#   excitation refocusing inversion saturation preparation other undefined
[RF]
1      138.889 1 2 3 100 100 0 0 0 0 e

# Format of trapezoid gradients:
# id amplitude rise flat fall delay
# ..      Hz/m   us   us   us    us
[TRAP]
 1       -42298  10  980  10   0
 2     -42087.5  10  980  10   0
 3      41666.7  10 2000  10   0
 4      42087.5  10  980  10   0
 5      85459.2  20  960  20   0
 6     -36826.6  10  980  10   0
 7      36826.6  10  980  10   0
 8     -31565.7  10  980  10   0
 9      31565.7  10  980  10   0
10     -26304.7  10  980  10   0
11      26304.7  10  980  10   0
12     -21043.8  10  980  10   0
13      21043.8  10  980  10   0
14     -15782.8  10  980  10   0
15      15782.8  10  980  10   0
16     -10521.9  10  980  10   0
17      10521.9  10  980  10   0
18     -5260.94  10  980  10   0
19      5260.94  10  980  10   0
20            0  10  980  10   0
21           -0  10  980  10   0

# Format of ADC events:
# id num dwell delay freqPPM phasePPM freq phase phase_id
# ..  ..    ns    us     ppm  rad/MHz   Hz   rad       ..
[ADC]
1 16 125000 10 0 0 0 0 0

# Sequence Shapes
[SHAPES]

shape_id 1
num_samples 2
1
1

shape_id 2
num_samples 2
0
0

shape_id 3
num_samples 2
0
200


[SIGNATURE]
# This is the hash of the Pulseq file, calculated right before the [SIGNATURE]
# section was added. It can be reproduced/verified with md5sum if the file
# trimmed to the position right above [SIGNATURE]. The new line character
# preceding [SIGNATURE] BELONGS to the signature (and needs to be sripped away
# for recalculating/verification)
Type md5
Hash 12ba6025971e3967424ceca5ab988af0
