# Pulseq sequence file
# Created by MATLAB mr toolbox

[VERSION]
major 1
minor 5
revision 1

[DEFINITIONS]
AdcRasterTime 1e-07 
BlockDurationRaster 1e-05 
FOV 0.2 0.2 0.005 
GradientRasterTime 1e-05 
Name mgre2d_1slice 
RadiofrequencyRasterTime 1e-06 
TotalDuration 3.18528 

# Format of blocks:
# NUM DUR RF  GX  GY  GZ  ADC  EXT
[BLOCKS]
  1 126   1   0   0   1  0  0
  2 100   0   2   3   4  0  0
  3 255   0   0   0   0  0  0
  4 164   0   5   0   0  1  0
  5 164   0   6   0   0  1  0
  6 164   0   5   0   0  1  0
  7 164   0   6   0   0  1  0
  8 8817   0   8   7   0  0  0
  9 126   1   0   0   1  0  0
 10 100   0   2   9   4  0  0
 11 255   0   0   0   0  0  0
 12 164   0   5   0   0  1  0
 13 164   0   6   0   0  1  0
 14 164   0   5   0   0  1  0
 15 164   0   6   0   0  1  0
 16 8817   0   8  10   0  0  0
 17 126   1   0   0   1  0  0
 18 100   0   2  11   4  0  0
 19 255   0   0   0   0  0  0
 20 164   0   5   0   0  1  0
 21 164   0   6   0   0  1  0
 22 164   0   5   0   0  1  0
 23 164   0   6   0   0  1  0
 24 8817   0   8  12   0  0  0
 25 126   1   0   0   1  0  0
 26 100   0   2  13   4  0  0
 27 255   0   0   0   0  0  0
 28 164   0   5   0   0  1  0
 29 164   0   6   0   0  1  0
 30 164   0   5   0   0  1  0
 31 164   0   6   0   0  1  0
 32 8817   0   8  14   0  0  0
 33 126   1   0   0   1  0  0
 34 100   0   2  15   4  0  0
 35 255   0   0   0   0  0  0
 36 164   0   5   0   0  1  0
 37 164   0   6   0   0  1  0
 38 164   0   5   0   0  1  0
 39 164   0   6   0   0  1  0
 40 8817   0   8  16   0  0  0
 41 126   1   0   0   1  0  0
 42 100   0   2  17   4  0  0
 43 255   0   0   0   0  0  0
 44 164   0   5   0   0  1  0
 45 164   0   6   0   0  1  0
 46 164   0   5   0   0  1  0
 47 164   0   6   0   0  1  0
 48 8817   0   8  18   0  0  0
 49 126   1   0   0   1  0  0
 50 100   0   2  19   4  0  0
 51 255   0   0   0   0  0  0
 52 164   0   5   0   0  1  0
 53 164   0   6   0   0  1  0
 54 164   0   5   0   0  1  0
 55 164   0   6   0   0  1  0
 56 8817   0   8  20   0  0  0
 57 126   1   0   0   1  0  0
 58 100   0   2  21   4  0  0
 59 255   0   0   0   0  0  0
 60 164   0   5   0   0  1  0
 61 164   0   6   0   0  1  0
 62 164   0   5   0   0  1  0
 63 164   0   6   0   0  1  0
 64 8817   0   8  22   0  0  0
 65 126   1   0   0   1  0  0
 66 100   0   2  23   4  0  0
 67 255   0   0   0   0  0  0
 68 164   0   5   0   0  1  0
 69 164   0   6   0   0  1  0
 70 164   0   5   0   0  1  0
 71 164   0   6   0   0  1  0
 72 8817   0   8  24   0  0  0
 73 126   1   0   0   1  0  0
 74 100   0   2  25   4  0  0
 75 255   0   0   0   0  0  0
 76 164   0   5   0   0  1  0
 77 164   0   6   0   0  1  0
 78 164   0   5   0   0  1  0
 79 164   0   6   0   0  1  0
 80 8817   0   8  26   0  0  0
 81 126   1   0   0   1  0  0
 82 100   0   2  27   4  0  0
 83 255   0   0   0   0  0  0
 84 164   0   5   0   0  1  0
 85 164   0   6   0   0  1  0
 86 164   0   5   0   0  1  0
 87 164   0   6   0   0  1  0
 88 8817   0   8  28   0  0  0
 89 126   1   0   0   1  0  0
 90 100   0   2  29   4  0  0
 91 255   0   0   0   0  0  0
 92 164   0   5   0   0  1  0
 93 164   0   6   0   0  1  0
 94 164   0   5   0   0  1  0
 95 164   0   6   0   0  1  0
 96 8817   0   8  30   0  0  0
 97 126   1   0   0   1  0  0
 98 100   0   2  31   4  0  0
 99 255   0   0   0   0  0  0
100 164   0   5   0   0  1  0
101 164   0   6   0   0  1  0
102 164   0   5   0   0  1  0
103 164   0   6   0   0  1  0
104 8817   0   8  32   0  0  0
105 126   1   0   0   1  0  0
106 100   0   2  33   4  0  0
107 255   0   0   0   0  0  0
108 164   0   5   0   0  1  0
109 164   0   6   0   0  1  0
110 164   0   5   0   0  1  0
111 164   0   6   0   0  1  0
112 8817   0   8  34   0  0  0
113 126   1   0   0   1  0  0
114 100   0   2  35   4  0  0
115 255   0   0   0   0  0  0
116 164   0   5   0   0  1  0
117 164   0   6   0   0  1  0
118 164   0   5   0   0  1  0
119 164   0   6   0   0  1  0
120 8817   0   8  36   0  0  0
121 126   1   0   0   1  0  0
122 100   0   2  37   4  0  0
123 255   0   0   0   0  0  0
124 164   0   5   0   0  1  0
125 164   0   6   0   0  1  0
126 164   0   5   0   0  1  0
127 164   0   6   0   0  1  0
128 8817   0   8  38   0  0  0
129 126   1   0   0   1  0  0
130 100   0   2  39   4  0  0
131 255   0   0   0   0  0  0
132 164   0   5   0   0  1  0
133 164   0   6   0   0  1  0
134 164   0   5   0   0  1  0
135 164   0   6   0   0  1  0
136 8817   0   8  40   0  0  0
137 126   1   0   0   1  0  0
138 100   0   2  38   4  0  0
139 255   0   0   0   0  0  0
140 164   0   5   0   0  1  0
141 164   0   6   0   0  1  0
142 164   0   5   0   0  1  0
143 164   0   6   0   0  1  0
144 8817   0   8  37   0  0  0
145 126   1   0   0   1  0  0
146 100   0   2  36   4  0  0
147 255   0   0   0   0  0  0
148 164   0   5   0   0  1  0
149 164   0   6   0   0  1  0
150 164   0   5   0   0  1  0
151 164   0   6   0   0  1  0
152 8817   0   8  35   0  0  0
153 126   1   0   0   1  0  0
154 100   0   2  34   4  0  0
155 255   0   0   0   0  0  0
156 164   0   5   0   0  1  0
157 164   0   6   0   0  1  0
158 164   0   5   0   0  1  0
159 164   0   6   0   0  1  0
160 8817   0   8  33   0  0  0
161 126   1   0   0   1  0  0
162 100   0   2  32   4  0  0
163 255   0   0   0   0  0  0
164 164   0   5   0   0  1  0
165 164   0   6   0   0  1  0
166 164   0   5   0   0  1  0
167 164   0   6   0   0  1  0
168 8817   0   8  31   0  0  0
169 126   1   0   0   1  0  0
170 100   0   2  30   4  0  0
171 255   0   0   0   0  0  0
172 164   0   5   0   0  1  0
173 164   0   6   0   0  1  0
174 164   0   5   0   0  1  0
175 164   0   6   0   0  1  0
176 8817   0   8  29   0  0  0
177 126   1   0   0   1  0  0
178 100   0   2  28   4  0  0
179 255   0   0   0   0  0  0
180 164   0   5   0   0  1  0
181 164   0   6   0   0  1  0
182 164   0   5   0   0  1  0
183 164   0   6   0   0  1  0
184 8817   0   8  27   0  0  0
185 126   1   0   0   1  0  0
186 100   0   2  26   4  0  0
187 255   0   0   0   0  0  0
188 164   0   5   0   0  1  0
189 164   0   6   0   0  1  0
190 164   0   5   0   0  1  0
191 164   0   6   0   0  1  0
192 8817   0   8  25   0  0  0
193 126   1   0   0   1  0  0
194 100   0   2  24   4  0  0
195 255   0   0   0   0  0  0
196 164   0   5   0   0  1  0
197 164   0   6   0   0  1  0
198 164   0   5   0   0  1  0
199 164   0   6   0   0  1  0
200 8817   0   8  23   0  0  0
201 126   1   0   0   1  0  0
202 100   0   2  22   4  0  0
203 255   0   0   0   0  0  0
204 164   0   5   0   0  1  0
205 164   0   6   0   0  1  0
206 164   0   5   0   0  1  0
207 164   0   6   0   0  1  0
208 8817   0   8  21   0  0  0
209 126   1   0   0   1  0  0
210 100   0   2  20   4  0  0
211 255   0   0   0   0  0  0
212 164   0   5   0   0  1  0
213 164   0   6   0   0  1  0
214 164   0   5   0   0  1  0
215 164   0   6   0   0  1  0
216 8817   0   8  19   0  0  0
217 126   1   0   0   1  0  0
218 100   0   2  18   4  0  0
219 255   0   0   0   0  0  0
220 164   0   5   0   0  1  0
221 164   0   6   0   0  1  0
222 164   0   5   0   0  1  0
223 164   0   6   0   0  1  0
224 8817   0   8  17   0  0  0
225 126   1   0   0   1  0  0
226 100   0   2  16   4  0  0
227 255   0   0   0   0  0  0
228 164   0   5   0   0  1  0
229 164   0   6   0   0  1  0
230 164   0   5   0   0  1  0
231 164   0   6   0   0  1  0
232 8817   0   8  15   0  0  0
233 126   1   0   0   1  0  0
234 100   0   2  14   4  0  0
235 255   0   0   0   0  0  0
236 164   0   5   0   0  1  0
237 164   0   6   0   0  1  0
238 164   0   5   0   0  1  0
239 164   0   6   0   0  1  0
240 8817   0   8  13   0  0  0
241 126   1   0   0   1  0  0
242 100   0   2  12   4  0  0
243 255   0   0   0   0  0  0
244 164   0   5   0   0  1  0
245 164   0   6   0   0  1  0
246 164   0   5   0   0  1  0
247 164   0   6   0   0  1  0
248 8817   0   8  11   0  0  0
249 126   1   0   0   1  0  0
250 100   0   2  10   4  0  0
251 255   0   0   0   0  0  0
252 164   0   5   0   0  1  0
253 164   0   6   0   0  1  0
254 164   0   5   0   0  1  0
255 164   0   6   0   0  1  0
256 8817   0   8   9   0  0  0

# Format of RF events:
# id ampl. mag_id phase_id time_shape_id center delay freqPPM phasePPM freq phase use
# ..   Hz      ..       ..            ..     us    us     ppm  rad/MHz   Hz   rad  ..
# Field 'use' is the initial of: 
#   excitation refocusing inversion saturation preparation other undefined
[RF]
1       223.31 1 2 0 500 130 0 0 0 0 e

# Format of trapezoid gradients:
# id amplitude rise flat fall delay
# ..      Hz/m   us   us   us    us
[TRAP]
 1       800000 130 1000 130   0
 2     -82653.1  20  960  20   0
 3     -81632.7  20  960  20   0
 4 -1.25556e+06 200  160 200   0
 5       100000  20 1600  20   0
 6      -100000  20 1600  20   0
 7      81632.7  20  960  20   0
 8  1.23077e+06 200   60 200   0
 9     -76530.6  20  960  20   0
10      76530.6  20  960  20   0
11     -71428.6  20  960  20   0
12      71428.6  20  960  20   0
13     -66326.5  20  960  20   0
14      66326.5  20  960  20   0
15     -60606.1  10  980  10   0
16      60606.1  10  980  10   0
17     -55555.6  10  980  10   0
18      55555.6  10  980  10   0
19     -50505.1  10  980  10   0
20      50505.1  10  980  10   0
21     -45454.5  10  980  10   0
22      45454.5  10  980  10   0
23       -40404  10  980  10   0
24        40404  10  980  10   0
25     -35353.5  10  980  10   0
26      35353.5  10  980  10   0
27       -30303  10  980  10   0
28        30303  10  980  10   0
29     -25252.5  10  980  10   0
30      25252.5  10  980  10   0
31       -20202  10  980  10   0
32        20202  10  980  10   0
33     -15151.5  10  980  10   0
34      15151.5  10  980  10   0
35       -10101  10  980  10   0
36        10101  10  980  10   0
37     -5050.51  10  980  10   0
38      5050.51  10  980  10   0
39            0  10  980  10   0
40           -0  10  980  10   0

# Format of ADC events:
# id num dwell delay freqPPM phasePPM freq phase phase_id
# ..  ..    ns    us     ppm  rad/MHz   Hz   rad       ..
[ADC]
1 32 50000 20 0 0 0 0 0

# Sequence Shapes
[SHAPES]

shape_id 1
num_samples 1000
0.000160162567
0.000481476115
0.00080415514
0.00112825708
0.00145383972
0.00178096111
0.00210967956
0.00244005356
0.00277214174
0.00310600282
0.00344169557
0.00377927874
0.00411881101
0.00446035098
0.00480395703
0.00514968738
0.00549759995
0.00584775233
0.00620020176
0.00655500503
0.00691221846
0.00727189782
0.0076340983
0.00799887444
0.00836628009
0.00873636834
0.00910919146
0.00948480087
0.00986324707
0.0102445796
0.0106288469
0.0110160965
0.0114063746
0.0117997262
0.0121961953
0.0125958244
0.0129986546
0.0134047257
0.013814076
0.0142267423
0.0146427597
0.0150621619
0.0154849808
0.0159112464
0.0163409872
0.0167742297
0.0172109984
0.0176513162
0.0180952035
0.0185426792
0.0189937596
0.0194484592
0.0199067902
0.0203687623
0.0208343833
0.0213036583
0.0217765903
0.0222531796
0.0227334241
0.0232173191
0.0237048576
0.0241960294
0.0246908222
0.0251892206
0.0256912066
0.0261967593
0.026705855
0.0272184671
0.027734566
0.0282541193
0.0287770912
0.0293034433
0.0298331339
0.0303661181
0.030902348
0.0314417722
0.0319843365
0.0325299832
0.0330786511
0.033630276
0.0341847903
0.0347421227
0.0353021989
0.0358649409
0.0364302671
0.0369980929
0.0375683296
0.0381408852
0.0387156643
0.0392925677
0.0398714926
0.0404523326
0.0410349777
0.0416193142
0.0422052248
0.0427925883
0.04338128
0.0439711714
0.0445621303
0.0451540209
0.0457467033
0.0463400341
0.0469338663
0.0475280488
0.0481224269
0.0487168421
0.0493111323
0.0499051314
0.0504986697
0.0510915737
0.051683666
0.0522747658
0.0528646883
0.0534532449
0.0540402436
0.0546254884
0.0552087798
0.0557899144
0.0563686855
0.0569448824
0.0575182909
0.0580886933
0.0586558682
0.0592195906
0.0597796321
0.0603357607
0.060887741
0.061435334
0.0619782973
0.0625163853
0.0630493489
0.0635769356
0.0640988897
0.0646149522
0.065124861
0.0656283507
0.0661251527
0.0666149955
0.0670976044
0.0675727018
0.0680400071
0.0684992366
0.0689501041
0.0693923203
0.0698255932
0.0702496281
0.0706641278
0.0710687923
0.0714633191
0.0718474032
0.0722207372
0.0725830115
0.0729339138
0.07327313
0.0736003435
0.0739152358
0.0742174861
0.074506772
0.0747827687
0.0750451501
0.075293588
0.0755277525
0.0757473121
0.0759519339
0.0761412835
0.0763150248
0.0764728208
0.076614333
0.0767392218
0.0768471465
0.0769377655
0.0770107361
0.077065715
0.077102358
0.0771203202
0.0771192563
0.0770988202
0.0770586658
0.0769984463
0.0769178149
0.0768164247
0.0766939285
0.0765499794
0.0763842305
0.0761963353
0.0759859473
0.0757527208
0.0754963103
0.0752163711
0.074912559
0.0745845309
0.0742319443
0.0738544579
0.0734517314
0.0730234257
0.0725692029
0.0720887266
0.0715816619
0.0710476753
0.0704864353
0.0698976119
0.069280877
0.0686359046
0.0679623709
0.0672599539
0.0665283342
0.0657671947
0.0649762208
0.0641551004
0.0633035242
0.0624211857
0.0615077811
0.0605630098
0.0595865741
0.0585781798
0.0575375356
0.0564643539
0.0553583504
0.0542192446
0.0530467593
0.0518406216
0.0506005621
0.0493263156
0.0480176207
0.0466742206
0.0452958625
0.043882298
0.0424332831
0.0409485787
0.0394279499
0.037871167
0.0362780047
0.0346482431
0.0329816669
0.0312780662
0.0295372364
0.0277589778
0.0259430965
0.0240894039
0.0221977169
0.0202678584
0.0182996565
0.0162929456
0.0142475659
0.0121633633
0.0100401902
0.00787790491
0.00567637199
0.00343546237
0.00115505336
0.00116497129
0.00352472125
0.00592429961
0.00836380275
0.0108433203
0.013362935
0.0159227229
0.0185227528
0.0211630866
0.0238437792
0.0265648781
0.0293264239
0.0321284496
0.0349709811
0.0378540367
0.0407776275
0.0437417569
0.0467464207
0.0497916072
0.0528772972
0.0560034633
0.0591700709
0.0623770772
0.0656244318
0.0689120763
0.0722399445
0.0756079619
0.0790160465
0.0824641079
0.0859520477
0.0894797596
0.0930471289
0.0966540329
0.100300341
0.103985913
0.107710604
0.111474256
0.115276706
0.119117782
0.122997303
0.126915082
0.130870921
0.134864614
0.138895948
0.142964701
0.147070644
0.151213536
0.155393132
0.159609175
0.163861403
0.168149543
0.172473316
0.176832432
0.181226596
0.185655501
0.190118835
0.194616276
0.199147495
0.203712153
0.208309904
0.212940395
0.217603263
0.222298137
0.22702464
0.231782385
0.236570978
0.241390016
0.246239089
0.25111778
0.256025662
0.260962303
0.265927261
0.270920087
0.275940326
0.280987512
0.286061175
0.291160837
0.29628601
0.301436202
0.306610912
0.311809632
0.317031848
0.322277038
0.327544672
0.332834216
0.338145127
0.343476855
0.348828846
0.354200537
0.35959136
0.365000738
0.370428091
0.375872832
0.381334367
0.386812095
0.392305412
0.397813707
0.403336361
0.408872753
0.414422254
0.419984231
0.425558045
0.431143052
0.436738601
0.44234404
0.44795871
0.453581945
0.459213079
0.464851437
0.470496343
0.476147115
0.481803067
0.487463508
0.493127745
0.498795081
0.504464814
0.510136239
0.515808647
0.521481327
0.527153564
0.532824641
0.538493835
0.544160424
0.549823681
0.555482878
0.561137283
0.566786162
0.572428781
0.578064402
0.583692285
0.589311689
0.594921872
0.600522089
0.606111595
0.611689644
0.617255488
0.62280838
0.628347569
0.633872307
0.639381843
0.644875427
0.650352309
0.655811738
0.661252965
0.666675239
0.672077811
0.677459932
0.682820854
0.68815983
0.693476114
0.698768961
0.704037627
0.709281371
0.714499451
0.71969113
0.724855671
0.729992338
0.7351004
0.740179127
0.745227791
0.750245668
0.755232035
0.760186174
0.765107368
0.769994906
0.774848077
0.779666177
0.784448503
0.789194356
0.793903044
0.798573876
0.803206166
0.807799232
0.812352399
0.816864994
0.821336348
0.825765802
0.830152696
0.834496379
0.838796204
0.84305153
0.847261722
0.85142615
0.85554419
0.859615224
0.863638641
0.867613835
0.871540207
0.875417166
0.879244124
0.883020503
0.886745732
0.890419245
0.894040483
0.897608898
0.901123945
0.904585089
0.907991801
0.911343561
0.914639857
0.917880184
0.921064045
0.924190952
0.927260425
0.930271992
0.933225189
0.936119562
0.938954665
0.941730059
0.944445318
0.94710002
0.949693756
0.952226123
0.95469673
0.957105193
0.959451139
0.961734204
0.963954032
0.966110279
0.96820261
0.970230697
0.972194226
0.974092891
0.975926395
0.977694452
0.979396787
0.981033133
0.982603235
0.984106847
0.985543733
0.98691367
0.988216443
0.989451847
0.99061969
0.991719787
0.992751967
0.993716068
0.994611939
0.995439438
0.996198437
0.996888815
0.997510466
0.99806329
0.998547201
0.998962123
0.999307992
0.999584751
0.999792359
0.999930783
1
1
0.999930783
0.999792359
0.999584751
0.999307992
0.998962123
0.998547201
0.99806329
0.997510466
0.996888815
0.996198437
0.995439438
0.994611939
0.993716068
0.992751967
0.991719787
0.99061969
0.989451847
0.988216443
0.98691367
0.985543733
0.984106847
0.982603235
0.981033133
0.979396787
0.977694452
0.975926395
0.974092891
0.972194226
0.970230697
0.96820261
0.966110279
0.963954032
0.961734204
0.959451139
0.957105193
0.95469673
0.952226123
0.949693756
0.94710002
0.944445318
0.941730059
0.938954665
0.936119562
0.933225189
0.930271992
0.927260425
0.924190952
0.921064045
0.917880184
0.914639857
0.911343561
0.907991801
0.904585089
0.901123945
0.897608898
0.894040483
0.890419245
0.886745732
0.883020503
0.879244124
0.875417166
0.871540207
0.867613835
0.863638641
0.859615224
0.85554419
0.85142615
0.847261722
0.84305153
0.838796204
0.834496379
0.830152696
0.825765802
0.821336348
0.816864994
0.812352399
0.807799232
0.803206166
0.798573876
0.793903044
0.789194356
0.784448503
0.779666177
0.774848077
0.769994906
0.765107368
0.760186174
0.755232035
0.750245668
0.745227791
0.740179127
0.7351004
0.729992338
0.724855671
0.71969113
0.714499451
0.709281371
0.704037627
0.698768961
0.693476114
0.68815983
0.682820854
0.677459932
0.672077811
0.666675239
0.661252965
0.655811738
0.650352309
0.644875427
0.639381843
0.633872307
0.628347569
0.62280838
0.617255488
0.611689644
0.606111595
0.600522089
0.594921872
0.589311689
0.583692285
0.578064402
0.572428781
0.566786162
0.561137283
0.555482878
0.549823681
0.544160424
0.538493835
0.532824641
0.527153564
0.521481327
0.515808647
0.510136239
0.504464814
0.498795081
0.493127745
0.487463508
0.481803067
0.476147115
0.470496343
0.464851437
0.459213079
0.453581945
0.44795871
0.44234404
0.436738601
0.431143052
0.425558045
0.419984231
0.414422254
0.408872753
0.403336361
0.397813707
0.392305412
0.386812095
0.381334367
0.375872832
0.370428091
0.365000738
0.35959136
0.354200537
0.348828846
0.343476855
0.338145127
0.332834216
0.327544672
0.322277038
0.317031848
0.311809632
0.306610912
0.301436202
0.29628601
0.291160837
0.286061175
0.280987512
0.275940326
0.270920087
0.265927261
0.260962303
0.256025662
0.25111778
0.246239089
0.241390016
0.236570978
0.231782385
0.22702464
0.222298137
0.217603263
0.212940395
0.208309904
0.203712153
0.199147495
0.194616276
0.190118835
0.185655501
0.181226596
0.176832432
0.172473316
0.168149543
0.163861403
0.159609175
0.155393132
0.151213536
0.147070644
0.142964701
0.138895948
0.134864614
0.130870921
0.126915082
0.122997303
0.119117782
0.115276706
0.111474256
0.107710604
0.103985913
0.100300341
0.0966540329
0.0930471289
0.0894797596
0.0859520477
0.0824641079
0.0790160465
0.0756079619
0.0722399445
0.0689120763
0.0656244318
0.0623770772
0.0591700709
0.0560034633
0.0528772972
0.0497916072
0.0467464207
0.0437417569
0.0407776275
0.0378540367
0.0349709811
0.0321284496
0.0293264239
0.0265648781
0.0238437792
0.0211630866
0.0185227528
0.0159227229
0.013362935
0.0108433203
0.00836380275
0.00592429961
0.00352472125
0.00116497129
0.00115505336
0.00343546237
0.00567637199
0.00787790491
0.0100401902
0.0121633633
0.0142475659
0.0162929456
0.0182996565
0.0202678584
0.0221977169
0.0240894039
0.0259430965
0.0277589778
0.0295372364
0.0312780662
0.0329816669
0.0346482431
0.0362780047
0.037871167
0.0394279499
0.0409485787
0.0424332831
0.043882298
0.0452958625
0.0466742206
0.0480176207
0.0493263156
0.0506005621
0.0518406216
0.0530467593
0.0542192446
0.0553583504
0.0564643539
0.0575375356
0.0585781798
0.0595865741
0.0605630098
0.0615077811
0.0624211857
0.0633035242
0.0641551004
0.0649762208
0.0657671947
0.0665283342
0.0672599539
0.0679623709
0.0686359046
0.069280877
0.0698976119
0.0704864353
0.0710476753
0.0715816619
0.0720887266
0.0725692029
0.0730234257
0.0734517314
0.0738544579
0.0742319443
0.0745845309
0.074912559
0.0752163711
0.0754963103
0.0757527208
0.0759859473
0.0761963353
0.0763842305
0.0765499794
0.0766939285
0.0768164247
0.0769178149
0.0769984463
0.0770586658
0.0770988202
0.0771192563
0.0771203202
0.077102358
0.077065715
0.0770107361
0.0769377655
0.0768471465
0.0767392218
0.076614333
0.0764728208
0.0763150248
0.0761412835
0.0759519339
0.0757473121
0.0755277525
0.075293588
0.0750451501
0.0747827687
0.074506772
0.0742174861
0.0739152358
0.0736003435
0.07327313
0.0729339138
0.0725830115
0.0722207372
0.0718474032
0.0714633191
0.0710687923
0.0706641278
0.0702496281
0.0698255932
0.0693923203
0.0689501041
0.0684992366
0.0680400071
0.0675727018
0.0670976044
0.0666149955
0.0661251527
0.0656283507
0.065124861
0.0646149522
0.0640988897
0.0635769356
0.0630493489
0.0625163853
0.0619782973
0.061435334
0.060887741
0.0603357607
0.0597796321
0.0592195906
0.0586558682
0.0580886933
0.0575182909
0.0569448824
0.0563686855
0.0557899144
0.0552087798
0.0546254884
0.0540402436
0.0534532449
0.0528646883
0.0522747658
0.051683666
0.0510915737
0.0504986697
0.0499051314
0.0493111323
0.0487168421
0.0481224269
0.0475280488
0.0469338663
0.0463400341
0.0457467033
0.0451540209
0.0445621303
0.0439711714
0.04338128
0.0427925883
0.0422052248
0.0416193142
0.0410349777
0.0404523326
0.0398714926
0.0392925677
0.0387156643
0.0381408852
0.0375683296
0.0369980929
0.0364302671
0.0358649409
0.0353021989
0.0347421227
0.0341847903
0.033630276
0.0330786511
0.0325299832
0.0319843365
0.0314417722
0.030902348
0.0303661181
0.0298331339
0.0293034433
0.0287770912
0.0282541193
0.027734566
0.0272184671
0.026705855
0.0261967593
0.0256912066
0.0251892206
0.0246908222
0.0241960294
0.0237048576
0.0232173191
0.0227334241
0.0222531796
0.0217765903
0.0213036583
0.0208343833
0.0203687623
0.0199067902
0.0194484592
0.0189937596
0.0185426792
0.0180952035
0.0176513162
0.0172109984
0.0167742297
0.0163409872
0.0159112464
0.0154849808
0.0150621619
0.0146427597
0.0142267423
0.013814076
0.0134047257
0.0129986546
0.0125958244
0.0121961953
0.0117997262
0.0114063746
0.0110160965
0.0106288469
0.0102445796
0.00986324707
0.00948480087
0.00910919146
0.00873636834
0.00836628009
0.00799887444
0.0076340983
0.00727189782
0.00691221846
0.00655500503
0.00620020176
0.00584775233
0.00549759995
0.00514968738
0.00480395703
0.00446035098
0.00411881101
0.00377927874
0.00344169557
0.00310600282
0.00277214174
0.00244005356
0.00210967956
0.00178096111
0.00145383972
0.00112825708
0.00080415514
0.000481476115
0.000160162567

shape_id 2
num_samples 1000
0.5
0
0
247
-0.5
0
0
497
0.5
0
0
247


[SIGNATURE]
# This is the hash of the Pulseq file, calculated right before the [SIGNATURE]
# section was added. It can be reproduced/verified with md5sum if the file
# trimmed to the position right above [SIGNATURE]. The new line character
# preceding [SIGNATURE] BELONGS to the signature (and needs to be sripped away
# for recalculating/verification)
Type md5
Hash 0af2595a2b7be037bed868a081e76199
