# Pulseq sequence file
# Created by MATLAB mr toolbox

[VERSION]
major 1
minor 5
revision 1

[DEFINITIONS]
AdcRasterTime 1e-07 
BlockDurationRaster 1e-05 
FOV 0.2 0.2 0.005 
GradientRasterTime 1e-05 
Name se2d_1slice 
RadiofrequencyRasterTime 1e-06 
TotalDuration 16 

# Format of blocks:
# NUM DUR RF  GX  GY  GZ  ADC  EXT
[BLOCKS]
  1 217   1   0   0   1  0  0
  2 100   0   2   3   4  0  0
  3 636   0   0   0   0  0  0
  4 312   2   0   0   0  0  0
  5 682   0   0   0   0  0  0
  6 322   0   5   0   0  1  0
  7 47731   0   0   0   0  0  0
  8 217   1   0   0   1  0  0
  9 100   0   2   6   4  0  0
 10 636   0   0   0   0  0  0
 11 312   2   0   0   0  0  0
 12 682   0   0   0   0  0  0
 13 322   0   5   0   0  1  0
 14 47731   0   0   0   0  0  0
 15 217   1   0   0   1  0  0
 16 100   0   2   7   4  0  0
 17 636   0   0   0   0  0  0
 18 312   2   0   0   0  0  0
 19 682   0   0   0   0  0  0
 20 322   0   5   0   0  1  0
 21 47731   0   0   0   0  0  0
 22 217   1   0   0   1  0  0
 23 100   0   2   8   4  0  0
 24 636   0   0   0   0  0  0
 25 312   2   0   0   0  0  0
 26 682   0   0   0   0  0  0
 27 322   0   5   0   0  1  0
 28 47731   0   0   0   0  0  0
 29 217   1   0   0   1  0  0
 30 100   0   2   9   4  0  0
 31 636   0   0   0   0  0  0
 32 312   2   0   0   0  0  0
 33 682   0   0   0   0  0  0
 34 322   0   5   0   0  1  0
 35 47731   0   0   0   0  0  0
 36 217   1   0   0   1  0  0
 37 100   0   2  10   4  0  0
 38 636   0   0   0   0  0  0
 39 312   2   0   0   0  0  0
 40 682   0   0   0   0  0  0
 41 322   0   5   0   0  1  0
 42 47731   0   0   0   0  0  0
 43 217   1   0   0   1  0  0
 44 100   0   2  11   4  0  0
 45 636   0   0   0   0  0  0
 46 312   2   0   0   0  0  0
 47 682   0   0   0   0  0  0
 48 322   0   5   0   0  1  0
 49 47731   0   0   0   0  0  0
 50 217   1   0   0   1  0  0
 51 100   0   2  12   4  0  0
 52 636   0   0   0   0  0  0
 53 312   2   0   0   0  0  0
 54 682   0   0   0   0  0  0
 55 322   0   5   0   0  1  0
 56 47731   0   0   0   0  0  0
 57 217   1   0   0   1  0  0
 58 100   0   2  13   4  0  0
 59 636   0   0   0   0  0  0
 60 312   2   0   0   0  0  0
 61 682   0   0   0   0  0  0
 62 322   0   5   0   0  1  0
 63 47731   0   0   0   0  0  0
 64 217   1   0   0   1  0  0
 65 100   0   2  14   4  0  0
 66 636   0   0   0   0  0  0
 67 312   2   0   0   0  0  0
 68 682   0   0   0   0  0  0
 69 322   0   5   0   0  1  0
 70 47731   0   0   0   0  0  0
 71 217   1   0   0   1  0  0
 72 100   0   2  15   4  0  0
 73 636   0   0   0   0  0  0
 74 312   2   0   0   0  0  0
 75 682   0   0   0   0  0  0
 76 322   0   5   0   0  1  0
 77 47731   0   0   0   0  0  0
 78 217   1   0   0   1  0  0
 79 100   0   2  16   4  0  0
 80 636   0   0   0   0  0  0
 81 312   2   0   0   0  0  0
 82 682   0   0   0   0  0  0
 83 322   0   5   0   0  1  0
 84 47731   0   0   0   0  0  0
 85 217   1   0   0   1  0  0
 86 100   0   2  17   4  0  0
 87 636   0   0   0   0  0  0
 88 312   2   0   0   0  0  0
 89 682   0   0   0   0  0  0
 90 322   0   5   0   0  1  0
 91 47731   0   0   0   0  0  0
 92 217   1   0   0   1  0  0
 93 100   0   2  18   4  0  0
 94 636   0   0   0   0  0  0
 95 312   2   0   0   0  0  0
 96 682   0   0   0   0  0  0
 97 322   0   5   0   0  1  0
 98 47731   0   0   0   0  0  0
 99 217   1   0   0   1  0  0
100 100   0   2  19   4  0  0
101 636   0   0   0   0  0  0
102 312   2   0   0   0  0  0
103 682   0   0   0   0  0  0
104 322   0   5   0   0  1  0
105 47731   0   0   0   0  0  0
106 217   1   0   0   1  0  0
107 100   0   2  20   4  0  0
108 636   0   0   0   0  0  0
109 312   2   0   0   0  0  0
110 682   0   0   0   0  0  0
111 322   0   5   0   0  1  0
112 47731   0   0   0   0  0  0
113 217   1   0   0   1  0  0
114 100   0   2  21   4  0  0
115 636   0   0   0   0  0  0
116 312   2   0   0   0  0  0
117 682   0   0   0   0  0  0
118 322   0   5   0   0  1  0
119 47731   0   0   0   0  0  0
120 217   1   0   0   1  0  0
121 100   0   2  22   4  0  0
122 636   0   0   0   0  0  0
123 312   2   0   0   0  0  0
124 682   0   0   0   0  0  0
125 322   0   5   0   0  1  0
126 47731   0   0   0   0  0  0
127 217   1   0   0   1  0  0
128 100   0   2  23   4  0  0
129 636   0   0   0   0  0  0
130 312   2   0   0   0  0  0
131 682   0   0   0   0  0  0
132 322   0   5   0   0  1  0
133 47731   0   0   0   0  0  0
134 217   1   0   0   1  0  0
135 100   0   2  24   4  0  0
136 636   0   0   0   0  0  0
137 312   2   0   0   0  0  0
138 682   0   0   0   0  0  0
139 322   0   5   0   0  1  0
140 47731   0   0   0   0  0  0
141 217   1   0   0   1  0  0
142 100   0   2  25   4  0  0
143 636   0   0   0   0  0  0
144 312   2   0   0   0  0  0
145 682   0   0   0   0  0  0
146 322   0   5   0   0  1  0
147 47731   0   0   0   0  0  0
148 217   1   0   0   1  0  0
149 100   0   2  26   4  0  0
150 636   0   0   0   0  0  0
151 312   2   0   0   0  0  0
152 682   0   0   0   0  0  0
153 322   0   5   0   0  1  0
154 47731   0   0   0   0  0  0
155 217   1   0   0   1  0  0
156 100   0   2  27   4  0  0
157 636   0   0   0   0  0  0
158 312   2   0   0   0  0  0
159 682   0   0   0   0  0  0
160 322   0   5   0   0  1  0
161 47731   0   0   0   0  0  0
162 217   1   0   0   1  0  0
163 100   0   2  28   4  0  0
164 636   0   0   0   0  0  0
165 312   2   0   0   0  0  0
166 682   0   0   0   0  0  0
167 322   0   5   0   0  1  0
168 47731   0   0   0   0  0  0
169 217   1   0   0   1  0  0
170 100   0   2  29   4  0  0
171 636   0   0   0   0  0  0
172 312   2   0   0   0  0  0
173 682   0   0   0   0  0  0
174 322   0   5   0   0  1  0
175 47731   0   0   0   0  0  0
176 217   1   0   0   1  0  0
177 100   0   2  30   4  0  0
178 636   0   0   0   0  0  0
179 312   2   0   0   0  0  0
180 682   0   0   0   0  0  0
181 322   0   5   0   0  1  0
182 47731   0   0   0   0  0  0
183 217   1   0   0   1  0  0
184 100   0   2  31   4  0  0
185 636   0   0   0   0  0  0
186 312   2   0   0   0  0  0
187 682   0   0   0   0  0  0
188 322   0   5   0   0  1  0
189 47731   0   0   0   0  0  0
190 217   1   0   0   1  0  0
191 100   0   2  32   4  0  0
192 636   0   0   0   0  0  0
193 312   2   0   0   0  0  0
194 682   0   0   0   0  0  0
195 322   0   5   0   0  1  0
196 47731   0   0   0   0  0  0
197 217   1   0   0   1  0  0
198 100   0   2  33   4  0  0
199 636   0   0   0   0  0  0
200 312   2   0   0   0  0  0
201 682   0   0   0   0  0  0
202 322   0   5   0   0  1  0
203 47731   0   0   0   0  0  0
204 217   1   0   0   1  0  0
205 100   0   2  34   4  0  0
206 636   0   0   0   0  0  0
207 312   2   0   0   0  0  0
208 682   0   0   0   0  0  0
209 322   0   5   0   0  1  0
210 47731   0   0   0   0  0  0
211 217   1   0   0   1  0  0
212 100   0   2  35   4  0  0
213 636   0   0   0   0  0  0
214 312   2   0   0   0  0  0
215 682   0   0   0   0  0  0
216 322   0   5   0   0  1  0
217 47731   0   0   0   0  0  0
218 217   1   0   0   1  0  0
219 100   0   2  36   4  0  0
220 636   0   0   0   0  0  0
221 312   2   0   0   0  0  0
222 682   0   0   0   0  0  0
223 322   0   5   0   0  1  0
224 47731   0   0   0   0  0  0

# Format of RF events:
# id ampl. mag_id phase_id time_shape_id center delay freqPPM phasePPM freq phase use
# ..   Hz      ..       ..            ..     us    us     ppm  rad/MHz   Hz   rad  ..
# Field 'use' is the initial of: 
#   excitation refocusing inversion saturation preparation other undefined
[RF]
1      493.727 1 2 0 1000 100 0 0 0 0 e
2      658.303 3 4 0 1500 100 0 0 0 0 r

# Format of trapezoid gradients:
# id amplitude rise flat fall delay
# ..      Hz/m   us   us   us    us
[TRAP]
 1       400000  70 2000  70  30
 2      81887.8  20  960  20   0
 3     -81632.7  20  960  20   0
 4 -1.25455e+06 200  130 200   0
 5        50000  10 3200  10   0
 6     -76530.6  20  960  20   0
 7     -71428.6  20  960  20   0
 8     -66326.5  20  960  20   0
 9     -60606.1  10  980  10   0
10     -55555.6  10  980  10   0
11     -50505.1  10  980  10   0
12     -45454.5  10  980  10   0
13       -40404  10  980  10   0
14     -35353.5  10  980  10   0
15       -30303  10  980  10   0
16     -25252.5  10  980  10   0
17       -20202  10  980  10   0
18     -15151.5  10  980  10   0
19       -10101  10  980  10   0
20     -5050.51  10  980  10   0
21            0  10  980  10   0
22      5050.51  10  980  10   0
23        10101  10  980  10   0
24      15151.5  10  980  10   0
25        20202  10  980  10   0
26      25252.5  10  980  10   0
27        30303  10  980  10   0
28      35353.5  10  980  10   0
29        40404  10  980  10   0
30      45454.5  10  980  10   0
31      50505.1  10  980  10   0
32      55555.6  10  980  10   0
33      60606.1  10  980  10   0
34      66326.5  20  960  20   0
35      71428.6  20  960  20   0
36      76530.6  20  960  20   0

# Format of ADC events:
# id num dwell delay freqPPM phasePPM freq phase phase_id
# ..  ..    ns    us     ppm  rad/MHz   Hz   rad       ..
[ADC]
1 32 100000 10 0 0 0 0 0

# Sequence Shapes
[SHAPES]

shape_id 1
num_samples 2000
3.08579554e-10
8.33986866e-09
3.8648066e-08
1.06152001e-07
2.25824945e-07
4.12692682e-07
6.81831569e-07
1.04836659e-06
1.52746937e-06
2.13435626e-06
2.88428628e-06
3.7925592e-06
4.87451348e-06
6.14552431e-06
7.62100153e-06
9.31638765e-06
1.12471558e-05
1.34288077e-05
1.58768715e-05
1.86068999e-05
2.16344678e-05
2.49751706e-05
2.86446218e-05
3.26584508e-05
3.70323014e-05
4.1781829e-05
4.69226987e-05
5.24705833e-05
5.84411612e-05
6.4850114e-05
7.17131246e-05
7.90458748e-05
8.68640434e-05
9.51833038e-05
0.000104019322
0.000113387754
0.000123304245
0.000133784426
0.000144843909
0.000156498291
0.000168763148
0.000181654031
0.000195186469
0.00020937596
0.000224237975
0.000239787953
0.000256041298
0.00027301338
0.000290719527
0.000309175031
0.000328395136
0.000348395044
0.000369189909
0.000390794835
0.000413224874
0.000436495024
0.000460620227
0.000485615365
0.00051149526
0.00053827467
0.000565968288
0.00059459074
0.00062415658
0.000654680292
0.000686176284
0.000718658886
0.000752142352
0.000786640851
0.000822168472
0.000858739215
0.000896366994
0.000935065631
0.000974848856
0.0010157303
0.00105772351
0.00110084192
0.00114509887
0.00119050758
0.00123708119
0.00128483271
0.00133377505
0.001383921
0.00143528325
0.00148787435
0.00154170675
0.00159679277
0.0016531446
0.00171077431
0.00176969385
0.00182991502
0.0018914495
0.00195430884
0.00201850444
0.00208404756
0.00215094934
0.00221922074
0.00228887261
0.00235991563
0.00243236033
0.00250621711
0.00258149618
0.00265820763
0.00273636136
0.00281596712
0.00289703451
0.00297957295
0.0030635917
0.00314909984
0.0032361063
0.0033246198
0.00341464893
0.00350620207
0.00359928743
0.00369391304
0.00379008674
0.0038878162
0.00398710888
0.00408797207
0.00419041286
0.00429443815
0.00440005463
0.00450726881
0.004616087
0.0047265153
0.00483855962
0.00495222563
0.00506751885
0.00518444453
0.00530300776
0.00542321339
0.00554506607
0.00566857021
0.00579373003
0.00592054952
0.00604903243
0.00617918233
0.00631100252
0.0064444961
0.00657966594
0.00671651466
0.00685504467
0.00699525813
0.00713715699
0.00728074293
0.00742601741
0.00757298167
0.00772163666
0.00787198312
0.00802402155
0.00817775218
0.00833317502
0.0084902898
0.00864909602
0.00880959293
0.00897177951
0.00913565449
0.00930121637
0.00946846334
0.00963739338
0.00980800418
0.00998029319
0.0101542576
0.0103298942
0.0105071998
0.0106861707
0.010866803
0.0110490926
0.0112330349
0.0114186254
0.0116058591
0.0117947306
0.0119852344
0.0121773648
0.0123711157
0.0125664806
0.0127634531
0.0129620261
0.0131621924
0.0133639445
0.0135672748
0.013772175
0.013978637
0.0141866519
0.0143962111
0.0146073051
0.0148199246
0.0150340598
0.0152497005
0.0154668364
0.015685457
0.0159055511
0.0161271075
0.0163501148
0.0165745611
0.0168004342
0.0170277218
0.0172564111
0.017486489
0.0177179424
0.0179507574
0.0181849203
0.0184204169
0.0186572325
0.0188953524
0.0191347615
0.0193754443
0.0196173852
0.019860568
0.0201049766
0.0203505942
0.020597404
0.0208453886
0.0210945307
0.0213448122
0.0215962152
0.021848721
0.0221023111
0.0223569664
0.0226126674
0.0228693946
0.0231271279
0.0233858472
0.0236455318
0.0239061609
0.0241677132
0.0244301674
0.0246935016
0.0249576937
0.0252227214
0.025488562
0.0257551924
0.0260225894
0.0262907294
0.0265595885
0.0268291425
0.0270993669
0.0273702368
0.0276417273
0.0279138128
0.0281864678
0.0284596662
0.0287333816
0.0290075876
0.0292822573
0.0295573634
0.0298328784
0.0301087747
0.0303850242
0.0306615984
0.0309384688
0.0312156064
0.0314929819
0.0317705659
0.0320483286
0.0323262398
0.0326042691
0.032882386
0.0331605593
0.033438758
0.0337169504
0.0339951048
0.0342731891
0.0345511709
0.0348290175
0.0351066961
0.0353841735
0.0356614161
0.0359383902
0.0362150618
0.0364913967
0.0367673602
0.0370429175
0.0373180336
0.037592673
0.0378668001
0.0381403791
0.0384133737
0.0386857477
0.0389574642
0.0392284864
0.0394987771
0.0397682988
0.040037014
0.0403048845
0.0405718723
0.0408379388
0.0411030455
0.0413671534
0.0416302233
0.0418922158
0.0421530913
0.0424128099
0.0426713315
0.0429286156
0.0431846219
0.0434393093
0.043692637
0.0439445636
0.0441950477
0.0444440476
0.0446915212
0.0449374266
0.0451817214
0.0454243629
0.0456653084
0.045904515
0.0461419394
0.0463775383
0.0466112681
0.0468430849
0.0470729448
0.0473008036
0.0475266169
0.0477503402
0.0479719288
0.0481913376
0.0484085216
0.0486234355
0.0488360338
0.0490462709
0.0492541009
0.0494594779
0.0496623557
0.049862688
0.0500604282
0.0502555299
0.0504479461
0.0506376299
0.0508245343
0.0510086119
0.0511898154
0.0513680973
0.0515434098
0.0517157052
0.0518849355
0.0520510526
0.0522140083
0.0523737543
0.0525302422
0.0526834233
0.0528332489
0.0529796704
0.0531226386
0.0532621047
0.0533980194
0.0535303336
0.0536589979
0.053783963
0.0539051791
0.0540225969
0.0541361665
0.0542458382
0.0543515622
0.0544532884
0.0545509669
0.0546445476
0.0547339804
0.0548192151
0.0549002013
0.0549768887
0.055049227
0.0551171658
0.0551806544
0.0552396425
0.0552940795
0.0553439146
0.0553890974
0.0554295771
0.055465303
0.0554962245
0.0555222906
0.0555434508
0.0555596542
0.0555708501
0.0555769875
0.0555780159
0.0555738842
0.0555645419
0.0555499379
0.0555300217
0.0555047425
0.0554740494
0.0554378917
0.0553962189
0.0553489801
0.0552961248
0.0552376023
0.0551733622
0.0551033538
0.0550275267
0.0549458304
0.0548582147
0.0547646291
0.0546650235
0.0545593476
0.0544475513
0.0543295846
0.0542053975
0.0540749401
0.0539381626
0.0537950152
0.0536454484
0.0534894125
0.0533268582
0.0531577361
0.0529819969
0.0527995916
0.0526104711
0.0524145865
0.052211889
0.05200233
0.0517858609
0.0515624333
0.0513319991
0.05109451
0.050849918
0.0505981754
0.0503392345
0.0500730476
0.0497995675
0.0495187469
0.0492305388
0.0489348962
0.0486317725
0.0483211212
0.0480028958
0.0476770502
0.0473435385
0.0470023148
0.0466533336
0.0462965494
0.045931917
0.0455593914
0.045178928
0.044790482
0.0443940092
0.0439894653
0.0435768066
0.0431559893
0.04272697
0.0422897055
0.0418441528
0.0413902691
0.040928012
0.0404573393
0.0399782089
0.0394905792
0.0389944087
0.0384896562
0.0379762808
0.0374542418
0.0369234989
0.0363840119
0.0358357411
0.0352786468
0.03471269
0.0341378315
0.0335540329
0.0329612556
0.0323594618
0.0317486136
0.0311286737
0.0304996049
0.0298613704
0.0292139338
0.028557259
0.02789131
0.0272160516
0.0265314484
0.0258374657
0.0251340691
0.0244212244
0.0236988979
0.0229670561
0.0222256661
0.021474695
0.0207141106
0.0199438809
0.0191639743
0.0183743596
0.0175750059
0.0167658828
0.0159469602
0.0151182083
0.014279598
0.0134311002
0.0125726864
0.0117043285
0.0108259988
0.00993767004
0.00903931521
0.00813090785
0.00721242187
0.00628383161
0.00534511182
0.00439623768
0.0034371848
0.00246792921
0.00148844738
0.000498716194
0.000501286994
0.00151158441
0.00253219783
0.00356314858
0.00460445754
0.00565614515
0.00671823137
0.00779073572
0.00887367726
0.00996707457
0.0110709458
0.0121853086
0.0133101801
0.0144455771
0.0155915158
0.0167480119
0.0179150807
0.0190927371
0.0202809953
0.0214798691
0.0226893719
0.0239095165
0.0251403152
0.0263817799
0.0276339218
0.0288967519
0.0301702805
0.0314545173
0.0327494717
0.0340551524
0.0353715678
0.0366987256
0.0380366331
0.039385297
0.0407447235
0.0421149182
0.0434958863
0.0448876325
0.0462901608
0.0477034748
0.0491275774
0.0505624713
0.0520081583
0.0534646398
0.0549319168
0.0564099895
0.0578988576
0.0593985205
0.0609089769
0.0624302247
0.0639622617
0.0655050848
0.0670586906
0.0686230748
0.070198233
0.0717841598
0.0733808495
0.0749882958
0.0766064917
0.0782354299
0.0798751023
0.0815255003
0.0831866147
0.0848584358
0.0865409534
0.0882341565
0.0899380337
0.091652573
0.0933777617
0.0951135868
0.0968600344
0.0986170903
0.100384739
0.102162966
0.103951755
0.105751089
0.107560951
0.109381323
0.111212186
0.113053522
0.114905312
0.116767534
0.118640169
0.120523194
0.122416589
0.12432033
0.126234394
0.128158758
0.130093398
0.132038288
0.133993404
0.135958719
0.137934206
0.139919838
0.141915589
0.143921428
0.145937327
0.147963258
0.149999188
0.152045088
0.154100927
0.156166672
0.158242292
0.160327752
0.162423019
0.164528059
0.166642837
0.168767318
0.170901465
0.173045242
0.175198612
0.177361537
0.179533978
0.181715897
0.183907254
0.186108009
0.188318121
0.190537549
0.192766251
0.195004184
0.197251306
0.199507572
0.20177294
0.204047363
0.206330797
0.208623195
0.210924512
0.213234699
0.215553711
0.217881497
0.22021801
0.222563199
0.224917016
0.22727941
0.22965033
0.232029723
0.234417539
0.236813723
0.239218224
0.241630987
0.244051957
0.24648108
0.2489183
0.251363562
0.253816808
0.256277982
0.258747025
0.26122388
0.263708488
0.266200789
0.268700724
0.271208232
0.273723253
0.276245725
0.278775585
0.281312772
0.283857223
0.286408873
0.288967659
0.291533517
0.294106381
0.296686185
0.299272864
0.30186635
0.304466578
0.307073478
0.309686984
0.312307025
0.314933534
0.31756644
0.320205674
0.322851165
0.325502841
0.328160632
0.330824465
0.333494267
0.336169966
0.338851488
0.34153876
0.344231706
0.346930252
0.349634323
0.352343842
0.355058735
0.357778923
0.36050433
0.363234878
0.365970489
0.368711085
0.371456587
0.374206916
0.376961991
0.379721733
0.382486061
0.385254894
0.388028151
0.39080575
0.393587608
0.396373643
0.399163772
0.401957911
0.404755977
0.407557886
0.410363552
0.413172891
0.415985818
0.418802246
0.42162209
0.424445263
0.427271678
0.430101249
0.432933887
0.435769505
0.438608014
0.441449326
0.444293352
0.447140003
0.449989188
0.452840819
0.455694805
0.458551055
0.461409479
0.464269984
0.467132481
0.469996877
0.472863079
0.475730996
0.478600535
0.481471603
0.484344107
0.487217952
0.490093046
0.492969294
0.495846603
0.498724876
0.501604021
0.50448394
0.50736454
0.510245725
0.513127398
0.516009465
0.518891827
0.52177439
0.524657056
0.527539729
0.530422311
0.533304705
0.536186814
0.539068539
0.541949783
0.544830448
0.547710436
0.550589648
0.553467985
0.556345349
0.559221641
0.562096761
0.564970611
0.567843091
0.570714102
0.573583543
0.576451316
0.579317319
0.582181454
0.58504362
0.587903716
0.590761643
0.5936173
0.596470586
0.599321401
0.602169643
0.605015213
0.607858008
0.610697929
0.613534874
0.616368742
0.619199432
0.622026842
0.624850872
0.62767142
0.630488385
0.633301665
0.636111159
0.638916765
0.641718383
0.644515911
0.647309247
0.650098289
0.652882938
0.65566309
0.658438645
0.661209501
0.663975557
0.666736712
0.669492864
0.672243912
0.674989755
0.677730292
0.680465421
0.683195042
0.685919054
0.688637355
0.691349846
0.694056425
0.696756992
0.699451445
0.702139686
0.704821613
0.707497126
0.710166126
0.712828511
0.715484183
0.718133042
0.720774987
0.723409921
0.726037742
0.728658353
0.731271653
0.733877546
0.736475931
0.73906671
0.741649785
0.744225058
0.746792431
0.749351806
0.751903086
0.754446173
0.75698097
0.759507381
0.762025308
0.764534655
0.767035327
0.769527226
0.772010257
0.774484326
0.776949335
0.779405191
0.781851799
0.784289064
0.786716892
0.789135189
0.791543862
0.793942816
0.79633196
0.798711199
0.801080443
0.803439598
0.805788573
0.808127276
0.810455616
0.812773502
0.815080843
0.81737755
0.819663532
0.821938699
0.824202964
0.826456236
0.828698427
0.83092945
0.833149216
0.835357638
0.837554629
0.839740102
0.841913971
0.844076151
0.846226556
0.8483651
0.8504917
0.852606271
0.854708729
0.85679899
0.858876973
0.860942594
0.862995771
0.865036422
0.867064467
0.869079824
0.871082414
0.873072156
0.875048971
0.877012779
0.878963504
0.880901066
0.882825387
0.884736392
0.886634003
0.888518145
0.890388741
0.892245717
0.894088998
0.89591851
0.89773418
0.899535933
0.901323699
0.903097405
0.904856979
0.906602351
0.90833345
0.910050206
0.91175255
0.913440413
0.915113727
0.916772424
0.918416437
0.920045699
0.921660145
0.923259709
0.924844327
0.926413933
0.927968464
0.929507858
0.931032051
0.932540981
0.934034588
0.93551281
0.936975588
0.938422861
0.939854572
0.94127066
0.942671069
0.944055742
0.945424622
0.946777654
0.948114781
0.94943595
0.950741106
0.952030196
0.953303167
0.954559967
0.955800546
0.957024851
0.958232833
0.959424442
0.96059963
0.961758349
0.96290055
0.964026187
0.965135214
0.966227585
0.967303255
0.968362181
0.969404318
0.970429624
0.971438057
0.972429575
0.973404138
0.974361705
0.975302237
0.976225695
0.977132041
0.978021238
0.978893249
0.979748039
0.980585571
0.981405812
0.982208728
0.982994285
0.983762452
0.984513196
0.985246486
0.985962292
0.986660586
0.987341337
0.988004517
0.9886501
0.989278059
0.989888367
0.990481
0.991055932
0.991613141
0.992152603
0.992674295
0.993178197
0.993664287
0.994132546
0.994582953
0.99501549
0.99543014
0.995826885
0.996205709
0.996566596
0.99690953
0.997234499
0.997541488
0.997830485
0.998101478
0.998354455
0.998589406
0.998806322
0.999005192
0.99918601
0.999348768
0.999493458
0.999620075
0.999728614
0.99981907
0.999891439
0.999945718
0.999981906
1
1
0.999981906
0.999945718
0.999891439
0.99981907
0.999728614
0.999620075
0.999493458
0.999348768
0.99918601
0.999005192
0.998806322
0.998589406
0.998354455
0.998101478
0.997830485
0.997541488
0.997234499
0.99690953
0.996566596
0.996205709
0.995826885
0.99543014
0.99501549
0.994582953
0.994132546
0.993664287
0.993178197
0.992674295
0.992152603
0.991613141
0.991055932
0.990481
0.989888367
0.989278059
0.9886501
0.988004517
0.987341337
0.986660586
0.985962292
0.985246486
0.984513196
0.983762452
0.982994285
0.982208728
0.981405812
0.980585571
0.979748039
0.978893249
0.978021238
0.977132041
0.976225695
0.975302237
0.974361705
0.973404138
0.972429575
0.971438057
0.970429624
0.969404318
0.968362181
0.967303255
0.966227585
0.965135214
0.964026187
0.96290055
0.961758349
0.96059963
0.959424442
0.958232833
0.957024851
0.955800546
0.954559967
0.953303167
0.952030196
0.950741106
0.94943595
0.948114781
0.946777654
0.945424622
0.944055742
0.942671069
0.94127066
0.939854572
0.938422861
0.936975588
0.93551281
0.934034588
0.932540981
0.931032051
0.929507858
0.927968464
0.926413933
0.924844327
0.923259709
0.921660145
0.920045699
0.918416437
0.916772424
0.915113727
0.913440413
0.91175255
0.910050206
0.90833345
0.906602351
0.904856979
0.903097405
0.901323699
0.899535933
0.89773418
0.89591851
0.894088998
0.892245717
0.890388741
0.888518145
0.886634003
0.884736392
0.882825387
0.880901066
0.878963504
0.877012779
0.875048971
0.873072156
0.871082414
0.869079824
0.867064467
0.865036422
0.862995771
0.860942594
0.858876973
0.85679899
0.854708729
0.852606271
0.8504917
0.8483651
0.846226556
0.844076151
0.841913971
0.839740102
0.837554629
0.835357638
0.833149216
0.83092945
0.828698427
0.826456236
0.824202964
0.821938699
0.819663532
0.81737755
0.815080843
0.812773502
0.810455616
0.808127276
0.805788573
0.803439598
0.801080443
0.798711199
0.79633196
0.793942816
0.791543862
0.789135189
0.786716892
0.784289064
0.781851799
0.779405191
0.776949335
0.774484326
0.772010257
0.769527226
0.767035327
0.764534655
0.762025308
0.759507381
0.75698097
0.754446173
0.751903086
0.749351806
0.746792431
0.744225058
0.741649785
0.73906671
0.736475931
0.733877546
0.731271653
0.728658353
0.726037742
0.723409921
0.720774987
0.718133042
0.715484183
0.712828511
0.710166126
0.707497126
0.704821613
0.702139686
0.699451445
0.696756992
0.694056425
0.691349846
0.688637355
0.685919054
0.683195042
0.680465421
0.677730292
0.674989755
0.672243912
0.669492864
0.666736712
0.663975557
0.661209501
0.658438645
0.65566309
0.652882938
0.650098289
0.647309247
0.644515911
0.641718383
0.638916765
0.636111159
0.633301665
0.630488385
0.62767142
0.624850872
0.622026842
0.619199432
0.616368742
0.613534874
0.610697929
0.607858008
0.605015213
0.602169643
0.599321401
0.596470586
0.5936173
0.590761643
0.587903716
0.58504362
0.582181454
0.579317319
0.576451316
0.573583543
0.570714102
0.567843091
0.564970611
0.562096761
0.559221641
0.556345349
0.553467985
0.550589648
0.547710436
0.544830448
0.541949783
0.539068539
0.536186814
0.533304705
0.530422311
0.527539729
0.524657056
0.52177439
0.518891827
0.516009465
0.513127398
0.510245725
0.50736454
0.50448394
0.501604021
0.498724876
0.495846603
0.492969294
0.490093046
0.487217952
0.484344107
0.481471603
0.478600535
0.475730996
0.472863079
0.469996877
0.467132481
0.464269984
0.461409479
0.458551055
0.455694805
0.452840819
0.449989188
0.447140003
0.444293352
0.441449326
0.438608014
0.435769505
0.432933887
0.430101249
0.427271678
0.424445263
0.42162209
0.418802246
0.415985818
0.413172891
0.410363552
0.407557886
0.404755977
0.401957911
0.399163772
0.396373643
0.393587608
0.39080575
0.388028151
0.385254894
0.382486061
0.379721733
0.376961991
0.374206916
0.371456587
0.368711085
0.365970489
0.363234878
0.36050433
0.357778923
0.355058735
0.352343842
0.349634323
0.346930252
0.344231706
0.34153876
0.338851488
0.336169966
0.333494267
0.330824465
0.328160632
0.325502841
0.322851165
0.320205674
0.31756644
0.314933534
0.312307025
0.309686984
0.307073478
0.304466578
0.30186635
0.299272864
0.296686185
0.294106381
0.291533517
0.288967659
0.286408873
0.283857223
0.281312772
0.278775585
0.276245725
0.273723253
0.271208232
0.268700724
0.266200789
0.263708488
0.26122388
0.258747025
0.256277982
0.253816808
0.251363562
0.2489183
0.24648108
0.244051957
0.241630987
0.239218224
0.236813723
0.234417539
0.232029723
0.22965033
0.22727941
0.224917016
0.222563199
0.22021801
0.217881497
0.215553711
0.213234699
0.210924512
0.208623195
0.206330797
0.204047363
0.20177294
0.199507572
0.197251306
0.195004184
0.192766251
0.190537549
0.188318121
0.186108009
0.183907254
0.181715897
0.179533978
0.177361537
0.175198612
0.173045242
0.170901465
0.168767318
0.166642837
0.164528059
0.162423019
0.160327752
0.158242292
0.156166672
0.154100927
0.152045088
0.149999188
0.147963258
0.145937327
0.143921428
0.141915589
0.139919838
0.137934206
0.135958719
0.133993404
0.132038288
0.130093398
0.128158758
0.126234394
0.12432033
0.122416589
0.120523194
0.118640169
0.116767534
0.114905312
0.113053522
0.111212186
0.109381323
0.107560951
0.105751089
0.103951755
0.102162966
0.100384739
0.0986170903
0.0968600344
0.0951135868
0.0933777617
0.091652573
0.0899380337
0.0882341565
0.0865409534
0.0848584358
0.0831866147
0.0815255003
0.0798751023
0.0782354299
0.0766064917
0.0749882958
0.0733808495
0.0717841598
0.070198233
0.0686230748
0.0670586906
0.0655050848
0.0639622617
0.0624302247
0.0609089769
0.0593985205
0.0578988576
0.0564099895
0.0549319168
0.0534646398
0.0520081583
0.0505624713
0.0491275774
0.0477034748
0.0462901608
0.0448876325
0.0434958863
0.0421149182
0.0407447235
0.039385297
0.0380366331
0.0366987256
0.0353715678
0.0340551524
0.0327494717
0.0314545173
0.0301702805
0.0288967519
0.0276339218
0.0263817799
0.0251403152
0.0239095165
0.0226893719
0.0214798691
0.0202809953
0.0190927371
0.0179150807
0.0167480119
0.0155915158
0.0144455771
0.0133101801
0.0121853086
0.0110709458
0.00996707457
0.00887367726
0.00779073572
0.00671823137
0.00565614515
0.00460445754
0.00356314858
0.00253219783
0.00151158441
0.000501286994
0.000498716194
0.00148844738
0.00246792921
0.0034371848
0.00439623768
0.00534511182
0.00628383161
0.00721242187
0.00813090785
0.00903931521
0.00993767004
0.0108259988
0.0117043285
0.0125726864
0.0134311002
0.014279598
0.0151182083
0.0159469602
0.0167658828
0.0175750059
0.0183743596
0.0191639743
0.0199438809
0.0207141106
0.021474695
0.0222256661
0.0229670561
0.0236988979
0.0244212244
0.0251340691
0.0258374657
0.0265314484
0.0272160516
0.02789131
0.028557259
0.0292139338
0.0298613704
0.0304996049
0.0311286737
0.0317486136
0.0323594618
0.0329612556
0.0335540329
0.0341378315
0.03471269
0.0352786468
0.0358357411
0.0363840119
0.0369234989
0.0374542418
0.0379762808
0.0384896562
0.0389944087
0.0394905792
0.0399782089
0.0404573393
0.040928012
0.0413902691
0.0418441528
0.0422897055
0.04272697
0.0431559893
0.0435768066
0.0439894653
0.0443940092
0.044790482
0.045178928
0.0455593914
0.045931917
0.0462965494
0.0466533336
0.0470023148
0.0473435385
0.0476770502
0.0480028958
0.0483211212
0.0486317725
0.0489348962
0.0492305388
0.0495187469
0.0497995675
0.0500730476
0.0503392345
0.0505981754
0.050849918
0.05109451
0.0513319991
0.0515624333
0.0517858609
0.05200233
0.052211889
0.0524145865
0.0526104711
0.0527995916
0.0529819969
0.0531577361
0.0533268582
0.0534894125
0.0536454484
0.0537950152
0.0539381626
0.0540749401
0.0542053975
0.0543295846
0.0544475513
0.0545593476
0.0546650235
0.0547646291
0.0548582147
0.0549458304
0.0550275267
0.0551033538
0.0551733622
0.0552376023
0.0552961248
0.0553489801
0.0553962189
0.0554378917
0.0554740494
0.0555047425
0.0555300217
0.0555499379
0.0555645419
0.0555738842
0.0555780159
0.0555769875
0.0555708501
0.0555596542
0.0555434508
0.0555222906
0.0554962245
0.055465303
0.0554295771
0.0553890974
0.0553439146
0.0552940795
0.0552396425
0.0551806544
0.0551171658
0.055049227
0.0549768887
0.0549002013
0.0548192151
0.0547339804
0.0546445476
0.0545509669
0.0544532884
0.0543515622
0.0542458382
0.0541361665
0.0540225969
0.0539051791
0.053783963
0.0536589979
0.0535303336
0.0533980194
0.0532621047
0.0531226386
0.0529796704
0.0528332489
0.0526834233
0.0525302422
0.0523737543
0.0522140083
0.0520510526
0.0518849355
0.0517157052
0.0515434098
0.0513680973
0.0511898154
0.0510086119
0.0508245343
0.0506376299
