# Pulseq sequence file
# Created by MATLAB mr toolbox

[VERSION]
major 1
minor 5
revision 1

[DEFINITIONS]
AdcRasterTime 2e-06 
BlockDurationRaster 4e-06 
ETL 16 
FOV 0.22 0.22 0.005 
GradientRasterTime 4e-06 
Name propeller-fse-axial 
Nblades 13 
RadiofrequencyRasterTime 2e-06 
RequiredExtensions ROTATIONS 
TotalDuration 32.50052 

# Format of blocks:
# NUM DUR RF  GX  GY  GZ  ADC  EXT
[BLOCKS]
   1   0   0   0   0   0  0  1
   2 666   1   0   0   1  0  0
   3 625   0   2   0   3  0  2
   4 271   0   0   0   0  0  0
   5 250   0   0   0   4  0  0
   6 542   2   0   0   5  0  0
   7 250   0   0   0   4  0  0
   8 250   0   0   6   0  0  2
   9 279   0   0   0   0  0  0
  10 1410   0   7   0   0  1  2
  11 250   0   0   8   0  0  2
  12 269   0   0   0   0  0  0
  13 250   0   0   0   4  0  0
  14 542   2   0   0   5  0  0
  15 250   0   0   0   4  0  0
  16 250   0   0   9   0  0  2
  17 279   0   0   0   0  0  0
  18 1410   0   7   0   0  1  2
  19 250   0   0  10   0  0  2
  20 269   0   0   0   0  0  0
  21 250   0   0   0   4  0  0
  22 542   2   0   0   5  0  0
  23 250   0   0   0   4  0  0
  24 250   0   0  11   0  0  2
  25 279   0   0   0   0  0  0
  26 1410   0   7   0   0  1  2
  27 250   0   0  12   0  0  2
  28 269   0   0   0   0  0  0
  29 250   0   0   0   4  0  0
  30 542   2   0   0   5  0  0
  31 250   0   0   0   4  0  0
  32 250   0   0  13   0  0  2
  33 279   0   0   0   0  0  0
  34 1410   0   7   0   0  1  2
  35 250   0   0  14   0  0  2
  36 269   0   0   0   0  0  0
  37 250   0   0   0   4  0  0
  38 542   2   0   0   5  0  0
  39 250   0   0   0   4  0  0
  40 250   0   0  15   0  0  2
  41 279   0   0   0   0  0  0
  42 1410   0   7   0   0  1  2
  43 250   0   0  16   0  0  2
  44 269   0   0   0   0  0  0
  45 250   0   0   0   4  0  0
  46 542   2   0   0   5  0  0
  47 250   0   0   0   4  0  0
  48 250   0   0  17   0  0  2
  49 279   0   0   0   0  0  0
  50 1410   0   7   0   0  1  2
  51 250   0   0  18   0  0  2
  52 269   0   0   0   0  0  0
  53 250   0   0   0   4  0  0
  54 542   2   0   0   5  0  0
  55 250   0   0   0   4  0  0
  56 250   0   0  16   0  0  2
  57 279   0   0   0   0  0  0
  58 1410   0   7   0   0  1  2
  59 250   0   0  15   0  0  2
  60 269   0   0   0   0  0  0
  61 250   0   0   0   4  0  0
  62 542   2   0   0   5  0  0
  63 250   0   0   0   4  0  0
  64 250   0   0  14   0  0  2
  65 279   0   0   0   0  0  0
  66 1410   0   7   0   0  1  2
  67 250   0   0  13   0  0  2
  68 269   0   0   0   0  0  0
  69 250   0   0   0   4  0  0
  70 542   2   0   0   5  0  0
  71 250   0   0   0   4  0  0
  72 250   0   0  12   0  0  2
  73 279   0   0   0   0  0  0
  74 1410   0   7   0   0  1  2
  75 250   0   0  11   0  0  2
  76 269   0   0   0   0  0  0
  77 250   0   0   0   4  0  0
  78 542   2   0   0   5  0  0
  79 250   0   0   0   4  0  0
  80 250   0   0  10   0  0  2
  81 279   0   0   0   0  0  0
  82 1410   0   7   0   0  1  2
  83 250   0   0   9   0  0  2
  84 269   0   0   0   0  0  0
  85 250   0   0   0   4  0  0
  86 542   2   0   0   5  0  0
  87 250   0   0   0   4  0  0
  88 250   0   0   8   0  0  2
  89 279   0   0   0   0  0  0
  90 1410   0   7   0   0  1  2
  91 250   0   0   6   0  0  2
  92 269   0   0   0   0  0  0
  93 250   0   0   0   4  0  0
  94 542   2   0   0   5  0  0
  95 250   0   0   0   4  0  0
  96 250   0   0  19   0  0  2
  97 279   0   0   0   0  0  0
  98 1410   0   7   0   0  1  2
  99 250   0   0  20   0  0  2
 100 269   0   0   0   0  0  0
 101 250   0   0   0   4  0  0
 102 542   2   0   0   5  0  0
 103 250   0   0   0   4  0  0
 104 250   0   0  21   0  0  2
 105 279   0   0   0   0  0  0
 106 1410   0   7   0   0  1  2
 107 250   0   0  22   0  0  2
 108 269   0   0   0   0  0  0
 109 250   0   0   0   4  0  0
 110 542   2   0   0   5  0  0
 111 250   0   0   0   4  0  0
 112 250   0   0  23   0  0  2
 113 279   0   0   0   0  0  0
 114 1410   0   7   0   0  1  2
 115 250   0   0  24   0  0  2
 116 269   0   0   0   0  0  0
 117 250   0   0   0   4  0  0
 118 542   2   0   0   5  0  0
 119 250   0   0   0   4  0  0
 120 250   0   0  22   0  0  2
 121 279   0   0   0   0  0  0
 122 1410   0   7   0   0  1  2
 123 250   0   0  21   0  0  2
 124 269   0   0   0   0  0  0
 125 250   0   0   0   4  0  0
 126 542   2   0   0   5  0  0
 127 250   0   0   0   4  0  0
 128 250   0   0  20   0  0  2
 129 279   0   0   0   0  0  0
 130 1410   0   7   0   0  1  2
 131 250   0   0  19   0  0  2
 132 269   0   0   0   0  0  0
 133 67440   0   0   0   0  0  0
 134   0   0   0   0   0  0  1
 135 666   3   0   0   1  0  0
 136 625   0   2   0   3  0  2
 137 271   0   0   0   0  0  0
 138 250   0   0   0   4  0  0
 139 542   4   0   0   5  0  0
 140 250   0   0   0   4  0  0
 141 250   0   0   6   0  0  2
 142 279   0   0   0   0  0  0
 143 1410   0   7   0   0  1  2
 144 250   0   0   8   0  0  2
 145 269   0   0   0   0  0  0
 146 250   0   0   0   4  0  0
 147 542   4   0   0   5  0  0
 148 250   0   0   0   4  0  0
 149 250   0   0   9   0  0  2
 150 279   0   0   0   0  0  0
 151 1410   0   7   0   0  1  2
 152 250   0   0  10   0  0  2
 153 269   0   0   0   0  0  0
 154 250   0   0   0   4  0  0
 155 542   4   0   0   5  0  0
 156 250   0   0   0   4  0  0
 157 250   0   0  11   0  0  2
 158 279   0   0   0   0  0  0
 159 1410   0   7   0   0  1  2
 160 250   0   0  12   0  0  2
 161 269   0   0   0   0  0  0
 162 250   0   0   0   4  0  0
 163 542   4   0   0   5  0  0
 164 250   0   0   0   4  0  0
 165 250   0   0  13   0  0  2
 166 279   0   0   0   0  0  0
 167 1410   0   7   0   0  1  2
 168 250   0   0  14   0  0  2
 169 269   0   0   0   0  0  0
 170 250   0   0   0   4  0  0
 171 542   4   0   0   5  0  0
 172 250   0   0   0   4  0  0
 173 250   0   0  15   0  0  2
 174 279   0   0   0   0  0  0
 175 1410   0   7   0   0  1  2
 176 250   0   0  16   0  0  2
 177 269   0   0   0   0  0  0
 178 250   0   0   0   4  0  0
 179 542   4   0   0   5  0  0
 180 250   0   0   0   4  0  0
 181 250   0   0  17   0  0  2
 182 279   0   0   0   0  0  0
 183 1410   0   7   0   0  1  2
 184 250   0   0  18   0  0  2
 185 269   0   0   0   0  0  0
 186 250   0   0   0   4  0  0
 187 542   4   0   0   5  0  0
 188 250   0   0   0   4  0  0
 189 250   0   0  16   0  0  2
 190 279   0   0   0   0  0  0
 191 1410   0   7   0   0  1  2
 192 250   0   0  15   0  0  2
 193 269   0   0   0   0  0  0
 194 250   0   0   0   4  0  0
 195 542   4   0   0   5  0  0
 196 250   0   0   0   4  0  0
 197 250   0   0  14   0  0  2
 198 279   0   0   0   0  0  0
 199 1410   0   7   0   0  1  2
 200 250   0   0  13   0  0  2
 201 269   0   0   0   0  0  0
 202 250   0   0   0   4  0  0
 203 542   4   0   0   5  0  0
 204 250   0   0   0   4  0  0
 205 250   0   0  12   0  0  2
 206 279   0   0   0   0  0  0
 207 1410   0   7   0   0  1  2
 208 250   0   0  11   0  0  2
 209 269   0   0   0   0  0  0
 210 250   0   0   0   4  0  0
 211 542   4   0   0   5  0  0
 212 250   0   0   0   4  0  0
 213 250   0   0  10   0  0  2
 214 279   0   0   0   0  0  0
 215 1410   0   7   0   0  1  2
 216 250   0   0   9   0  0  2
 217 269   0   0   0   0  0  0
 218 250   0   0   0   4  0  0
 219 542   4   0   0   5  0  0
 220 250   0   0   0   4  0  0
 221 250   0   0   8   0  0  2
 222 279   0   0   0   0  0  0
 223 1410   0   7   0   0  1  2
 224 250   0   0   6   0  0  2
 225 269   0   0   0   0  0  0
 226 250   0   0   0   4  0  0
 227 542   4   0   0   5  0  0
 228 250   0   0   0   4  0  0
 229 250   0   0  19   0  0  2
 230 279   0   0   0   0  0  0
 231 1410   0   7   0   0  1  2
 232 250   0   0  20   0  0  2
 233 269   0   0   0   0  0  0
 234 250   0   0   0   4  0  0
 235 542   4   0   0   5  0  0
 236 250   0   0   0   4  0  0
 237 250   0   0  21   0  0  2
 238 279   0   0   0   0  0  0
 239 1410   0   7   0   0  1  2
 240 250   0   0  22   0  0  2
 241 269   0   0   0   0  0  0
 242 250   0   0   0   4  0  0
 243 542   4   0   0   5  0  0
 244 250   0   0   0   4  0  0
 245 250   0   0  23   0  0  2
 246 279   0   0   0   0  0  0
 247 1410   0   7   0   0  1  2
 248 250   0   0  24   0  0  2
 249 269   0   0   0   0  0  0
 250 250   0   0   0   4  0  0
 251 542   4   0   0   5  0  0
 252 250   0   0   0   4  0  0
 253 250   0   0  22   0  0  2
 254 279   0   0   0   0  0  0
 255 1410   0   7   0   0  1  2
 256 250   0   0  21   0  0  2
 257 269   0   0   0   0  0  0
 258 250   0   0   0   4  0  0
 259 542   4   0   0   5  0  0
 260 250   0   0   0   4  0  0
 261 250   0   0  20   0  0  2
 262 279   0   0   0   0  0  0
 263 1410   0   7   0   0  1  2
 264 250   0   0  19   0  0  2
 265 269   0   0   0   0  0  0
 266 67440   0   0   0   0  0  0
 267   0   0   0   0   0  0  1
 268 666   5   0   0   1  0  0
 269 625   0   2   0   3  0  2
 270 271   0   0   0   0  0  0
 271 250   0   0   0   4  0  0
 272 542   6   0   0   5  0  0
 273 250   0   0   0   4  0  0
 274 250   0   0   6   0  0  2
 275 279   0   0   0   0  0  0
 276 1410   0   7   0   0  1  2
 277 250   0   0   8   0  0  2
 278 269   0   0   0   0  0  0
 279 250   0   0   0   4  0  0
 280 542   6   0   0   5  0  0
 281 250   0   0   0   4  0  0
 282 250   0   0   9   0  0  2
 283 279   0   0   0   0  0  0
 284 1410   0   7   0   0  1  2
 285 250   0   0  10   0  0  2
 286 269   0   0   0   0  0  0
 287 250   0   0   0   4  0  0
 288 542   6   0   0   5  0  0
 289 250   0   0   0   4  0  0
 290 250   0   0  11   0  0  2
 291 279   0   0   0   0  0  0
 292 1410   0   7   0   0  1  2
 293 250   0   0  12   0  0  2
 294 269   0   0   0   0  0  0
 295 250   0   0   0   4  0  0
 296 542   6   0   0   5  0  0
 297 250   0   0   0   4  0  0
 298 250   0   0  13   0  0  2
 299 279   0   0   0   0  0  0
 300 1410   0   7   0   0  1  2
 301 250   0   0  14   0  0  2
 302 269   0   0   0   0  0  0
 303 250   0   0   0   4  0  0
 304 542   6   0   0   5  0  0
 305 250   0   0   0   4  0  0
 306 250   0   0  15   0  0  2
 307 279   0   0   0   0  0  0
 308 1410   0   7   0   0  1  2
[RF]
1       394.98 1 2 0 1250 104 0 0 -3200 26.7035 e
2      822.873 3 4 0 1000 104 0 0 -4000 25.1327 r
3       394.98 1 2 0 1250 104 0 0 -1600 14.1372 e
4      822.873 3 4 0 1000 104 0 0 -2000 12.5664 r
5       394.98 1 2 0 1250 104 0 0 0 1.5708 e
6      822.873 3 4 0 1000 104 0 0 0 0 r
7       394.98 1 2 0 1250 104 0 0 1600 -10.9956 e
8      822.873 3 4 0 1000 104 0 0 2000 -12.5664 r
9       394.98 1 2 0 1250 104 0 0 3200 -23.5619 e
10      822.873 3 4 0 1000 104 0 0 4000 -25.1327 r

# Format of trapezoid gradients:
# id amplitude rise flat fall delay
# ..      Hz/m   us   us   us    us
[TRAP]
 1       320000  52 2500  52  52
 2       136465 260 1980 260   0
 3      -182286 260 1980 260   0
 4  1.08108e+06 260  480 260   0
 5       400000  64 2000  64  40
 6     -30712.5 260  480 260   0
 7       113636 260 5120 260   0
 8      30712.5 260  480 260   0
 9       -24570 260  480 260   0
10        24570 260  480 260   0
11     -18427.5 260  480 260   0
12      18427.5 260  480 260   0
13       -12285 260  480 260   0
14        12285 260  480 260   0
15     -6142.51 260  480 260   0
16      6142.51 260  480 260   0
17            0 260  480 260   0
18           -0 260  480 260   0
19        36855 260  480 260   0
20       -36855 260  480 260   0
21      42997.5 260  480 260   0
22     -42997.5 260  480 260   0
23       -49140 260  480 260   0
24        49140 260  480 260   0

# Format of ADC events:
# id num dwell delay freqPPM phasePPM freq phase phase_id
# ..  ..    ns    us     ppm  rad/MHz   Hz   rad       ..
[ADC]
1 256 20000 260 0 0 0 0 0

# Format of extension lists:
# id type ref next_id
# next_id of 0 terminates the list
# Extension list is followed by extension specifications
[EXTENSIONS]
1 1 1 0
2 3 1 0
3 3 2 0
4 3 3 0
5 3 4 0
6 3 5 0
7 3 6 0
8 3 7 0
9 3 8 0
10 3 9 0
11 3 10 0
12 3 11 0
13 3 12 0
14 3 13 0

# Extension specification for setting labels:
# id set labelstring
extension LABELSET 1
1 1 TRID

# Extension specification for rotation events:
# id RotQuat0 RotQuatX RotQuatY RotQuatZ
extension ROTATIONS 3
1  1 0 0 0
2  0.992709 0 0 0.120537
3  0.970942 0 0 0.239316
4  0.935016 0 0 0.354605
5  0.885456 0 0 0.464723
6  0.822984 0 0 0.568065
7  0.748511 0 0 0.663123
8  0.663123 0 0 0.748511
9  0.568065 0 0 0.822984
10  0.464723 0 0 0.885456
11  0.354605 0 0 0.935016
12  0.239316 0 0 0.970942
13  0.120537 0 0 0.992709

# Sequence Shapes
[SHAPES]

shape_id 1
num_samples 1250
1.26432215e-09
3.41901524e-08
1.58530003e-07
4.35656719e-07
9.27280928e-07
1.69543061e-06
2.80243049e-06
4.31088127e-06
6.28363866e-06
8.78379229e-06
1.18746444e-05
1.56196886e-05
2.0082588e-05
2.53271536e-05
3.14173227e-05
3.84171366e-05
4.63907184e-05
5.5402251e-05
6.55159549e-05
7.67960651e-05
8.9306809e-05
0.000103112384
0.000118276933
0.000134864524
0.000152939125
0.000172564582
0.000193804597
0.000216722701
0.000241382233
0.00026784632
0.000296177847
0.000326439436
0.000358693427
0.000393001848
0.000429426393
0.000468028401
0.00050886883
0.000552008235
0.00059750674
0.000645424021
0.000695819275
0.000748751203
0.000804277982
0.000862457241
0.000923346039
0.000987000842
0.0010534775
0.00112283121
0.00119511652
0.00127038728
0.00134869663
0.00143009698
0.00151463996
0.00160237644
0.00169335648
0.0017876293
0.00188524328
0.00198624591
0.0020906838
0.00219860262
0.00231004711
0.00242506105
0.0025436872
0.00266596734
0.00279194221
0.00292165147
0.00305513373
0.0031924265
0.00333356614
0.00347858789
0.00362752582
0.00378041282
0.00393728057
0.0040981595
0.00426307883
0.00443206647
0.00460514908
0.00478235197
0.00496369916
0.00514921328
0.00533891562
0.00553282608
0.00573096313
0.00593334383
0.00613998379
0.00635089717
0.00656609661
0.0067855933
0.00700939688
0.00723751545
0.00746995557
0.00770672224
0.00794781886
0.00819324723
0.00844300753
0.0086970983
0.00895551645
0.0092182572
0.00948531411
0.00975667903
0.0100323421
0.0103122918
0.0105965147
0.0108849959
0.0111777184
0.0114746637
0.0117758114
0.0120811393
0.0123906234
0.0127042378
0.0130219549
0.0133437452
0.0136695774
0.0139994181
0.0143332323
0.014670983
0.0150126313
0.0153581364
0.0157074557
0.0160605444
0.0164173561
0.0167778423
0.0171419525
0.0175096345
0.0178808338
0.0182554943
0.0186335577
0.0190149638
0.0193996505
0.0197875536
0.0201786069
0.0205727424
0.0209698901
0.0213699777
0.0217729314
0.022178675
0.0225871305
0.0229982179
0.0234118552
0.0238279583
0.0242464413
0.0246672162
0.0250901931
0.0255152799
0.0259423828
0.0263714058
0.0268022511
0.0272348188
0.0276690071
0.0281047122
0.0285418284
0.028980248
0.0294198613
0.0298605567
0.0303022209
0.0307447382
0.0311879915
0.0316318613
0.0320762267
0.0325209645
0.0329659498
0.0334110558
0.0338561538
0.0343011135
0.0347458023
0.0351900861
0.0356338291
0.0360768933
0.0365191392
0.0369604255
0.037400609
0.037839545
0.0382770868
0.0387130861
0.039147393
0.0395798557
0.040010321
0.0404386338
0.0408646375
0.0412881739
0.0417090832
0.0421272038
0.0425423729
0.042954426
0.043363197
0.0437685184
0.0441702213
0.0445681351
0.0449620879
0.0453519066
0.0457374163
0.0461184412
0.0464948036
0.046866325
0.0472328253
0.0475941233
0.0479500365
0.048300381
0.0486449719
0.0489836233
0.0493161477
0.0496423568
0.0499620613
0.0502750705
0.0505811929
0.0508802361
0.0511720063
0.0514563093
0.0517329495
0.0520017307
0.0522624557
0.0525149267
0.0527589447
0.0529943104
0.0532208233
0.0534382825
0.0536464865
0.0538452327
0.0540343185
0.0542135402
0.0543826939
0.0545415751
0.0546899786
0.0548276991
0.0549545307
0.0550702672
0.0551747019
0.0552676281
0.0553488384
0.0554181256
0.055475282
0.0555200998
0.0555523713
0.0555718883
0.0555784429
0.055571827
0.0555518326
0.0555182515
0.0554708761
0.0554094983
0.0553339108
0.055243906
0.0551392767
0.0550198161
0.0548853176
0.054735575
0.0545703823
0.0543895343
0.054192826
0.0539800529
0.0537510111
0.0535054974
0.0532433091
0.0529642441
0.0526681011
0.0523546795
0.0520237796
0.0516752023
0.0513087495
0.050924224
0.0505214294
0.0501001705
0.0496602529
0.0492014834
0.0487236698
0.0482266211
0.0477101474
0.04717406
0.0466181715
0.0460422959
0.0454462483
0.0448298452
0.0441929048
0.0435352464
0.0428566908
0.0421570606
0.0414361798
0.0406938738
0.03992997
0.0391442972
0.0383366861
0.0375069691
0.0366549802
0.0357805556
0.034883533
0.0339637522
0.033021055
0.0320552849
0.0310662878
0.0300539113
0.0290180054
0.0279584219
0.0268750151
0.0257676412
0.0246361588
0.0234804288
0.0223003144
0.0210956809
0.0198663963
0.0186123309
0.0173333573
0.0160293508
0.0147001891
0.0133457525
0.0119659239
0.0105605886
0.00912963484
0.00767295337
0.00619043771
0.00468198411
0.00314749159
0.001586862
1.9490972e-17
0.00161318687
0.00325278816
0.0049188905
0.00661157758
0.00833093006
0.0100770256
0.0118499389
0.0136497414
0.0154765017
0.0173302849
0.0192111534
0.021119166
0.0230543787
0.0250168438
0.0270066108
0.0290237256
0.0310682309
0.0331401662
0.0352395673
0.0373664671
0.0395208947
0.0417028759
0.0439124332
0.0461495855
0.0484143482
0.0507067332
0.053026749
0.0553744004
0.0577496888
0.0601526119
0.0625831638
0.0650413351
0.0675271126
0.0700404796
0.0725814157
0.0751498969
0.0777458953
0.0803693795
0.0830203142
0.0856986606
0.088404376
0.091137414
0.0938977244
0.0966852532
0.0994999427
0.102341731
0.105210554
0.108106341
0.11102902
0.113978514
0.116954742
0.11995762
0.12298706
0.126042969
0.129125251
0.132233807
0.135368532
0.13852932
0.141716059
0.144928633
0.148166924
0.151430808
0.154720158
0.158034844
0.161374731
0.16473968
0.16812955
0.171544194
0.174983462
0.1784472
0.181935251
0.185447453
0.18898364
0.192543644
0.196127291
0.199734405
0.203364805
0.207018308
0.210694724
0.214393862
0.218115526
0.221859517
0.225625632
0.229413665
0.233223404
0.237054636
0.240907143
0.244780704
0.248675093
0.252590082
0.256525438
0.260480926
0.264456306
0.268451336
0.272465769
0.276499355
0.28055184
0.284622969
0.28871248
0.29282011
0.296945592
0.301088656
0.305249027
0.30942643
0.313620582
0.317831202
0.322058001
0.326300691
0.330558978
0.334832566
0.339121155
0.343424442
0.347742124
0.35207389
0.356419429
0.360778427
0.365150567
0.369535528
0.373932987
0.378342619
0.382764094
0.387197081
0.391641245
0.396096251
0.400561759
0.405037426
0.409522907
0.414017857
0.418521925
0.423034758
0.427556003
0.432085303
0.436622298
0.441166628
0.445717927
0.450275832
0.454839972
0.459409979
0.46398548
0.468566101
0.473151465
0.477741194
0.48233491
0.486932228
0.491532766
0.496136139
0.500741958
0.505349836
0.509959382
0.514570204
0.519181908
0.5237941
0.528406382
0.533018358
0.537629627
0.542239791
0.546848446
0.551455191
0.556059621
0.560661332
0.565259917
0.569854969
0.574446081
0.579032844
0.583614849
0.588191684
0.592762939
0.597328202
0.601887061
0.606439103
0.610983915
0.615521083
0.620050192
0.624570828
0.629082576
0.633585022
0.638077749
0.642560343
0.647032387
0.651493468
0.655943168
0.660381074
0.664806768
0.669219838
0.673619867
0.678006442
0.682379148
0.686737571
0.6910813
0.69540992
0.69972302
0.704020188
0.708301014
0.712565087
0.716812
0.721041342
0.725252707
0.729445689
0.733619881
0.73777488
0.741910283
0.746025686
0.750120691
0.754194896
0.758247905
0.76227932
0.766288746
0.770275789
0.774240057
0.778181159
0.782098707
0.785992313
0.789861593
0.793706161
0.797525637
0.801319641
0.805087795
0.808829724
0.812545053
0.816233411
0.819894429
0.82352774
0.827132979
0.830709784
0.834257794
0.837776652
0.841266002
0.844725493
0.848154775
0.851553499
0.854921322
0.858257901
0.861562897
0.864835975
0.8680768
0.871285042
0.874460374
0.877602471
0.880711011
0.883785678
0.886826154
0.889832129
0.892803293
0.895739341
0.898639971
0.901504885
0.904333786
0.907126383
0.909882388
0.912601516
0.915283485
0.917928017
0.92053484
0.923103682
0.925634276
0.928126361
0.930579676
0.932993967
0.935368983
0.937704475
0.940000201
0.942255921
0.9444714
0.946646405
0.948780711
0.950874093
0.952926333
0.954937216
0.95690653
0.958834071
0.960719634
0.962563023
0.964364044
0.966122507
0.967838229
0.969511028
0.971140728
0.972727159
0.974270152
0.975769545
0.977225181
0.978636905
0.98000457
0.98132803
0.982607145
0.983841782
0.985031809
0.9861771
0.987277535
0.988332997
0.989343375
0.990308561
0.991228454
0.992102956
0.992931975
0.993715422
0.994453215
0.995145276
0.99579153
0.996391911
0.996946354
0.9974548
0.997917195
0.998333491
0.998703643
0.999027612
0.999305363
0.999536868
0.999722101
0.999861043
0.999953679
1
1
0.999953679
0.999861043
0.999722101
0.999536868
0.999305363
0.999027612
0.998703643
0.998333491
0.997917195
0.9974548
0.996946354
0.996391911
0.99579153
0.995145276
0.994453215
0.993715422
0.992931975
0.992102956
0.991228454
0.990308561
0.989343375
0.988332997
0.987277535
0.9861771
0.985031809
0.983841782
0.982607145
0.98132803
0.98000457
0.978636905
0.977225181
0.975769545
0.974270152
0.972727159
0.971140728
0.969511028
0.967838229
0.966122507
0.964364044
0.962563023
0.960719634
0.958834071
0.95690653
0.954937216
0.952926333
0.950874093
0.948780711
0.946646405
0.9444714
0.942255921
0.940000201
0.937704475
0.935368983
0.932993967
0.930579676
0.928126361
0.925634276
0.923103682
0.92053484
0.917928017
0.915283485
0.912601516
0.909882388
0.907126383
0.904333786
0.901504885
0.898639971
0.895739341
0.892803293
0.889832129
0.886826154
0.883785678
0.880711011
0.877602471
0.874460374
0.871285042
0.8680768
0.864835975
0.861562897
0.858257901
0.854921322
0.851553499
0.848154775
0.844725493
0.841266002
0.837776652
0.834257794
0.830709784
0.827132979
0.82352774
0.819894429
0.816233411
0.812545053
0.808829724
0.805087795
0.801319641
0.797525637
0.793706161
0.789861593
0.785992313
0.782098707
0.778181159
0.774240057
0.770275789
0.766288746
0.76227932
0.758247905
0.754194896
0.750120691
0.746025686
0.741910283
0.73777488
0.733619881
0.729445689
0.725252707
0.721041342
0.716812
0.712565087
0.708301014
0.704020188
0.69972302
0.69540992
0.6910813
0.686737571
0.682379148
0.678006442
0.673619867
0.669219838
0.664806768
0.660381074
0.655943168
0.651493468
0.647032387
0.642560343
0.638077749
0.633585022
0.629082576
0.624570828
0.620050192
0.615521083
0.610983915
0.606439103
0.601887061
0.597328202
0.592762939
0.588191684
0.583614849
0.579032844
0.574446081
0.569854969
0.565259917
0.560661332
0.556059621
0.551455191
0.546848446
0.542239791
0.537629627
0.533018358
0.528406382
0.5237941
0.519181908
0.514570204
0.509959382
0.505349836
0.500741958
0.496136139
0.491532766
0.486932228
0.48233491
0.477741194
0.473151465
0.468566101
0.46398548
0.459409979
0.454839972
0.450275832
0.445717927
0.441166628
0.436622298
0.432085303
0.427556003
0.423034758
0.418521925
0.414017857
0.409522907
0.405037426
0.400561759
0.396096251
0.391641245
0.387197081
0.382764094
0.378342619
0.373932987
0.369535528
0.365150567
0.360778427
0.356419429
0.35207389
0.347742124
0.343424442
0.339121155
0.334832566
0.330558978
0.326300691
0.322058001
0.317831202
0.313620582
0.30942643
0.305249027
0.301088656
0.296945592
0.29282011
0.28871248
0.284622969
0.28055184
0.276499355
0.272465769
0.268451336
0.264456306
0.260480926
0.256525438
0.252590082
0.248675093
0.244780704
0.240907143
0.237054636
0.233223404
0.229413665
0.225625632
0.221859517
0.218115526
0.214393862
0.210694724
0.207018308
0.203364805
0.199734405
0.196127291
0.192543644
0.18898364
0.185447453
0.181935251
0.1784472
0.174983462
0.171544194
0.16812955
0.16473968
0.161374731
0.158034844
0.154720158
0.151430808
0.148166924
0.144928633
0.141716059
0.13852932
0.135368532
0.132233807
0.129125251
0.126042969
0.12298706
0.11995762
0.116954742
0.113978514
0.11102902
0.108106341
0.105210554
0.102341731
0.0994999427
0.0966852532
0.0938977244
0.091137414
0.088404376
0.0856986606
0.0830203142
0.0803693795
0.0777458953
0.0751498969
0.0725814157
0.0700404796
0.0675271126
0.0650413351
0.0625831638
0.0601526119
0.0577496888
0.0553744004
0.053026749
0.0507067332
0.0484143482
0.0461495855
0.0439124332
0.0417028759
0.0395208947
0.0373664671
0.0352395673
0.0331401662
0.0310682309
0.0290237256
0.0270066108
0.0250168438
0.0230543787
0.021119166
0.0192111534
0.0173302849
0.0154765017
0.0136497414
0.0118499389
0.0100770256
0.00833093006
0.00661157758
0.0049188905
0.00325278816
0.00161318687
9.01703742e-17
0.001586862
0.00314749159
0.00468198411
0.00619043771
0.00767295337
0.00912963484
0.0105605886
0.0119659239
0.0133457525
0.0147001891
0.0160293508
0.0173333573
0.0186123309
0.0198663963
0.0210956809
0.0223003144
0.0234804288
0.0246361588
0.0257676412
0.0268750151
0.0279584219
0.0290180054
0.0300539113
0.0310662878
0.0320552849
0.033021055
0.0339637522
0.034883533
0.0357805556
0.0366549802
0.0375069691
0.0383366861
0.0391442972
0.03992997
0.0406938738
0.0414361798
0.0421570606
0.0428566908
0.0435352464
0.0441929048
0.0448298452
0.0454462483
0.0460422959
0.0466181715
0.04717406
0.0477101474
0.0482266211
0.0487236698
0.0492014834
0.0496602529
0.0501001705
0.0505214294
0.050924224
0.0513087495
0.0516752023
0.0520237796
0.0523546795
0.0526681011
0.0529642441
0.0532433091
0.0535054974
0.0537510111
0.0539800529
0.054192826
0.0543895343
0.0545703823
0.054735575
0.0548853176
0.0550198161
0.0551392767
0.055243906
0.0553339108
0.0554094983
0.0554708761
0.0555182515
0.0555518326
0.055571827
0.0555784429
0.0555718883
0.0555523713
0.0555200998
0.055475282
0.0554181256
0.0553488384
0.0552676281
0.0551747019
0.0550702672
0.0549545307
0.0548276991
0.0546899786
0.0545415751
0.0543826939
0.0542135402
0.0540343185
0.0538452327
0.0536464865
0.0534382825
0.0532208233
0.0529943104
0.0527589447
0.0525149267
0.0522624557
0.0520017307
0.0517329495
0.0514563093
0.0511720063
0.0508802361
0.0505811929
0.0502750705
0.0499620613
0.0496423568
0.0493161477
0.0489836233
0.0486449719
0.048300381
0.0479500365
0.0475941233
0.0472328253
0.046866325
0.0464948036
0.0461184412
0.0457374163
0.0453519066
0.0449620879
0.0445681351
0.0441702213
0.0437685184
0.043363197
0.042954426
0.0425423729
0.0421272038
0.0417090832
0.0412881739
0.0408646375
0.0404386338
0.040010321
0.0395798557
0.039147393
0.0387130861
0.0382770868
0.037839545
0.037400609
0.0369604255
0.0365191392
0.0360768933
0.0356338291
0.0351900861
0.0347458023
0.0343011135
0.0338561538
0.0334110558
0.0329659498
0.0325209645
0.0320762267
0.0316318613
0.0311879915
0.0307447382
0.0303022209
0.0298605567
0.0294198613
0.028980248
0.0285418284
0.0281047122
0.0276690071
0.0272348188
0.0268022511
0.0263714058
0.0259423828
0.0255152799
0.0250901931
0.0246672162
0.0242464413
0.0238279583
0.0234118552
0.0229982179
0.0225871305
0.022178675
0.0217729314
0.0213699777
0.0209698901
0.0205727424
0.0201786069
0.0197875536
0.0193996505
0.0190149638
0.0186335577
0.0182554943
0.0178808338
0.0175096345
0.0171419525
0.0167778423
0.0164173561
0.0160605444
0.0157074557
0.0153581364
0.0150126313
0.014670983
0.0143332323
0.0139994181
0.0136695774
0.0133437452
0.0130219549
0.0127042378
0.0123906234
0.0120811393
0.0117758114
0.0114746637
0.0111777184
0.0108849959
0.0105965147
0.0103122918
0.0100323421
0.00975667903
0.00948531411
0.0092182572
0.00895551645
0.0086970983
0.00844300753
0.00819324723
0.00794781886
0.00770672224
0.00746995557
0.00723751545
0.00700939688
0.0067855933
0.00656609661
0.00635089717
0.00613998379
0.00593334383
0.00573096313
0.00553282608
0.00533891562
0.00514921328
0.00496369916
0.00478235197
0.00460514908
0.00443206647
0.00426307883
0.0040981595
0.00393728057
0.00378041282
0.00362752582
0.00347858789
0.00333356614
0.0031924265
0.00305513373
0.00292165147
0.00279194221
0.00266596734
0.0025436872
0.00242506105
0.00231004711
0.00219860262
0.0020906838
0.00198624591
0.00188524328
0.0017876293
0.00169335648
0.00160237644
0.00151463996
0.00143009698
0.00134869663
0.00127038728
0.00119511652
0.00112283121
0.0010534775
0.000987000842
0.000923346039
0.000862457241
0.000804277982
0.000748751203
0.000695819275
0.000645424021
0.00059750674
0.000552008235
0.00050886883
0.000468028401
0.000429426393
0.000393001848
0.000358693427
0.000326439436
0.000296177847
0.00026784632
0.000241382233
0.000216722701
0.000193804597
0.000172564582
0.000152939125
0.000134864524
0.000118276933
0.000103112384
8.9306809e-05
7.67960651e-05
6.55159549e-05
5.5402251e-05
4.63907184e-05
3.84171366e-05
3.14173227e-05
2.53271536e-05
2.0082588e-05
1.56196886e-05
1.18746444e-05
8.78379229e-06
6.28363866e-06
4.31088127e-06
2.80243049e-06
1.69543061e-06
9.27280928e-07
4.35656719e-07
1.58530003e-07
3.41901524e-08
1.26432215e-09

shape_id 2
num_samples 1250
0.5
0
0
309
-0.5
0
0
623
0.5
0
0
309

shape_id 3
num_samples 1000
2.46987503e-09
6.68164436e-08
3.09920458e-07
8.51983185e-07
1.8139994e-06
3.31769462e-06
5.48546172e-06
8.44029687e-06
1.23057349e-05
1.72057839e-05
2.32648598e-05
3.06077193e-05
3.93593938e-05
4.96451212e-05
6.15902785e-05
7.53203133e-05
9.0960675e-05
0.000108636746
0.00012847377
0.000150596786
0.000175130554
0.000202199487
0.000231927578
0.000264438332
0.00029985469
0.000338298962
0.00037989275
0.000424756882
0.000473011336
0.000524775166
0.000580166435
0.000639302138
0.000702298131
0.000769269059
0.000840328283
0.000915587807
0.000995158206
0.00107914855
0.00116766635
0.00126081745
0.001358706
0.00146143433
0.00156910294
0.00168181038
0.00179965321
0.0019227259
0.00205112078
0.00218492798
0.00232423533
0.00246912832
0.00261969001
0.00277600097
0.00293813921
0.00310618011
0.00328019639
0.00346025796
0.00364643195
0.00383878258
0.00403737111
0.0042422558
0.00445349183
0.00467113121
0.00489522278
0.00512581209
0.00536294137
0.00560664948
0.00585697182
0.00611394028
0.00637758323
0.00664792539
0.00692498783
0.00720878789
0.00749933914
0.00779665132
0.0081007303
0.00841157802
0.00872919243
0.00905356747
0.00938469301
0.00972255481
0.0100671344
0.0104184093
0.0107763526
0.011140933
0.0115121153
0.0118898595
0.0122741214
0.0126648523
0.0130619991
0.0134655042
0.0138753055
0.014291336
0.0147135246
0.0151417953
0.0155760675
0.0160162559
0.0164622705
0.0169140168
0.0173713952
0.0178343015
0.018302627
0.0187762578
0.0192550753
0.0197389563
0.0202277726
0.0207213911
0.0212196741
0.0217224788
0.0222296577
0.0227410583
0.0232565234
0.0237758909
0.0242989938
0.0248256602
0.0253557136
0.0258889722
0.0264252499
