# Pulseq sequence file
# Created by MATLAB mr toolbox

[VERSION]
major 1
minor 5
revision 1

[DEFINITIONS]
AdcRasterTime 2e-06 
BlockDurationRaster 4e-06 
FOV 0.24 0.24 0.003 
GradientRasterTime 4e-06 
Name t1_spgr 
Nslices 44 
RadiofrequencyRasterTime 2e-06 
SliceThickness 0.003 
TotalDuration 76.809216 

# Format of blocks:
# NUM DUR RF  GX  GY  GZ  ADC  EXT
[BLOCKS]
    1   0   0   0   0   0  0  1
    2 554   1   0   0   1  0  0
    3 230   0   2   3   4  0  0
    4 100   0   0   0   0  0  0
    5 790   0   5   0   0  1  0
    6 599   0   6   7   8  0  0
    7   0   0   0   0   0  0  1
    8 554   2   0   0   1  0  0
    9 230   0   2   3   4  0  0
   10 100   0   0   0   0  0  0
   11 790   0   5   0   0  1  0
   12 599   0   6   7   8  0  0
   13   0   0   0   0   0  0  1
   14 554   3   0   0   1  0  0
   15 230   0   2   3   4  0  0
   16 100   0   0   0   0  0  0
   17 790   0   5   0   0  1  0
   18 599   0   6   7   8  0  0
   19   0   0   0   0   0  0  1
   20 554   4   0   0   1  0  0
   21 230   0   2   3   4  0  0
   22 100   0   0   0   0  0  0
   23 790   0   5   0   0  1  0
   24 599   0   6   7   8  0  0
   25   0   0   0   0   0  0  1
   26 554   5   0   0   1  0  0
   27 230   0   2   3   4  0  0
   28 100   0   0   0   0  0  0
   29 790   0   5   0   0  1  0
   30 599   0   6   7   8  0  0
   31   0   0   0   0   0  0  1
   32 554   6   0   0   1  0  0
   33 230   0   2   3   4  0  0
   34 100   0   0   0   0  0  0
   35 790   0   5   0   0  1  0
   36 599   0   6   7   8  0  0
   37   0   0   0   0   0  0  1
   38 554   7   0   0   1  0  0
   39 230   0   2   3   4  0  0
   40 100   0   0   0   0  0  0
   41 790   0   5   0   0  1  0
   42 599   0   6   7   8  0  0
   43   0   0   0   0   0  0  1
   44 554   8   0   0   1  0  0
   45 230   0   2   3   4  0  0
   46 100   0   0   0   0  0  0
   47 790   0   5   0   0  1  0
   48 599   0   6   7   8  0  0
   49   0   0   0   0   0  0  1
   50 554   9   0   0   1  0  0
   51 230   0   2   3   4  0  0
   52 100   0   0   0   0  0  0
   53 790   0   5   0   0  1  0
   54 599   0   6   7   8  0  0
   55   0   0   0   0   0  0  1
   56 554  10   0   0   1  0  0
   57 230   0   2   3   4  0  0
   58 100   0   0   0   0  0  0
   59 790   0   5   0   0  1  0
   60 599   0   6   7   8  0  0
   61   0   0   0   0   0  0  1
   62 554  11   0   0   1  0  0
   63 230   0   2   3   4  0  0
   64 100   0   0   0   0  0  0
   65 790   0   5   0   0  1  0
   66 599   0   6   7   8  0  0
   67   0   0   0   0   0  0  1
   68 554  12   0   0   1  0  0
   69 230   0   2   3   4  0  0
   70 100   0   0   0   0  0  0
   71 790   0   5   0   0  1  0
   72 599   0   6   7   8  0  0
   73   0   0   0   0   0  0  1
   74 554  13   0   0   1  0  0
   75 230   0   2   3   4  0  0
   76 100   0   0   0   0  0  0
   77 790   0   5   0   0  1  0
   78 599   0   6   7   8  0  0
   79   0   0   0   0   0  0  1
   80 554  14   0   0   1  0  0
   81 230   0   2   3   4  0  0
   82 100   0   0   0   0  0  0
   83 790   0   5   0   0  1  0
   84 599   0   6   7   8  0  0
   85   0   0   0   0   0  0  1
   86 554  15   0   0   1  0  0
   87 230   0   2   3   4  0  0
   88 100   0   0   0   0  0  0
   89 790   0   5   0   0  1  0
   90 599   0   6   7   8  0  0
   91   0   0   0   0   0  0  1
   92 554  16   0   0   1  0  0
   93 230   0   2   3   4  0  0
   94 100   0   0   0   0  0  0
   95 790   0   5   0   0  1  0
   96 599   0   6   7   8  0  0
   97   0   0   0   0   0  0  1
   98 554  17   0   0   1  0  0
   99 230   0   2   3   4  0  0
  100 100   0   0   0   0  0  0
  101 790   0   5   0   0  1  0
  102 599   0   6   7   8  0  0
  103   0   0   0   0   0  0  1
  104 554  18   0   0   1  0  0
  105 230   0   2   3   4  0  0
  106 100   0   0   0   0  0  0
  107 790   0   5   0   0  1  0
  108 599   0   6   7   8  0  0
  109   0   0   0   0   0  0  1
  110 554  19   0   0   1  0  0
  111 230   0   2   3   4  0  0
  112 100   0   0   0   0  0  0
  113 790   0   5   0   0  1  0
  114 599   0   6   7   8  0  0
  115   0   0   0   0   0  0  1
  116 554  20   0   0   1  0  0
  117 230   0   2   3   4  0  0
  118 100   0   0   0   0  0  0
  119 790   0   5   0   0  1  0
  120 599   0   6   7   8  0  0
  121   0   0   0   0   0  0  1
  122 554  21   0   0   1  0  0
  123 230   0   2   3   4  0  0
  124 100   0   0   0   0  0  0
  125 790   0   5   0   0  1  0
  126 599   0   6   7   8  0  0
  127   0   0   0   0   0  0  1
  128 554  22   0   0   1  0  0
  129 230   0   2   3   4  0  0
  130 100   0   0   0   0  0  0
  131 790   0   5   0   0  1  0
  132 599   0   6   7   8  0  0
  133   0   0   0   0   0  0  1
  134 554  23   0   0   1  0  0
  135 230   0   2   3   4  0  0
  136 100   0   0   0   0  0  0
  137 790   0   5   0   0  1  0
  138 599   0   6   7   8  0  0
  139   0   0   0   0   0  0  1
  140 554  24   0   0   1  0  0
  141 230   0   2   3   4  0  0
  142 100   0   0   0   0  0  0
  143 790   0   5   0   0  1  0
  144 599   0   6   7   8  0  0
  145   0   0   0   0   0  0  1
  146 554  25   0   0   1  0  0
  147 230   0   2   3   4  0  0
  148 100   0   0   0   0  0  0
  149 790   0   5   0   0  1  0
  150 599   0   6   7   8  0  0
  151   0   0   0   0   0  0  1
  152 554  26   0   0   1  0  0
  153 230   0   2   3   4  0  0
  154 100   0   0   0   0  0  0
  155 790   0   5   0   0  1  0
  156 599   0   6   7   8  0  0
  157   0   0   0   0   0  0  1
  158 554  27   0   0   1  0  0
  159 230   0   2   3   4  0  0
  160 100   0   0   0   0  0  0
  161 790   0   5   0   0  1  0
  162 599   0   6   7   8  0  0
  163   0   0   0   0   0  0  1
  164 554  28   0   0   1  0  0
  165 230   0   2   3   4  0  0
  166 100   0   0   0   0  0  0
  167 790   0   5   0   0  1  0
  168 599   0   6   7   8  0  0
  169   0   0   0   0   0  0  1
  170 554  29   0   0   1  0  0
  171 230   0   2   3   4  0  0
  172 100   0   0   0   0  0  0
  173 790   0   5   0   0  1  0
  174 599   0   6   7   8  0  0
  175   0   0   0   0   0  0  1
  176 554  30   0   0   1  0  0
  177 230   0   2   3   4  0  0
  178 100   0   0   0   0  0  0
  179 790   0   5   0   0  1  0
  180 599   0   6   7   8  0  0
  181   0   0   0   0   0  0  1
  182 554  31   0   0   1  0  0
  183 230   0   2   3   4  0  0
  184 100   0   0   0   0  0  0
  185 790   0   5   0   0  1  0
  186 599   0   6   7   8  0  0
  187   0   0   0   0   0  0  1
  188 554  32   0   0   1  0  0
  189 230   0   2   3   4  0  0
  190 100   0   0   0   0  0  0
  191 790   0   5   0   0  1  0
  192 599   0   6   7   8  0  0
  193   0   0   0   0   0  0  1
  194 554  33   0   0   1  0  0
  195 230   0   2   3   4  0  0
  196 100   0   0   0   0  0  0
  197 790   0   5   0   0  1  0
  198 599   0   6   7   8  0  0
  199   0   0   0   0   0  0  1
  200 554  34   0   0   1  0  0
  201 230   0   2   3   4  0  0
  202 100   0   0   0   0  0  0
  203 790   0   5   0   0  1  0
  204 599   0   6   7   8  0  0
  205   0   0   0   0   0  0  1
  206 554  35   0   0   1  0  0
  207 230   0   2   3   4  0  0
  208 100   0   0   0   0  0  0
  209 790   0   5   0   0  1  0
  210 599   0   6   7   8  0  0
  211   0   0   0   0   0  0  1
  212 554  36   0   0   1  0  0
  213 230   0   2   3   4  0  0
  214 100   0   0   0   0  0  0
  215 790   0   5   0   0  1  0
  216 599   0   6   7   8  0  0
  217   0   0   0   0   0  0  1
  218 554  37   0   0   1  0  0
  219 230   0   2   3   4  0  0
  220 100   0   0   0   0  0  0
  221 790   0   5   0   0  1  0
  222 599   0   6   7   8  0  0
  223   0   0   0   0   0  0  1
  224 554  38   0   0   1  0  0
  225 230   0   2   3   4  0  0
  226 100   0   0   0   0  0  0
  227 790   0   5   0   0  1  0
  228 599   0   6   7   8  0  0
  229   0   0   0   0   0  0  1
  230 554  39   0   0   1  0  0
  231 230   0   2   3   4  0  0
  232 100   0   0   0   0  0  0
  233 790   0   5   0   0  1  0
  234 599   0   6   7   8  0  0
  235   0   0   0   0   0  0  1
  236 554  40   0   0   1  0  0
  237 230   0   2   3   4  0  0
  238 100   0   0   0   0  0  0
  239 790   0   5   0   0  1  0
  240 599   0   6   7   8  0  0
  241   0   0   0   0   0  0  1
  242 554  41   0   0   1  0  0
  243 230   0   2   3   4  0  0
  244 100   0   0   0   0  0  0
  245 790   0   5   0   0  1  0
  246 599   0   6   7   8  0  0
  247   0   0   0   0   0  0  1
  248 554  42   0   0   1  0  0
  249 230   0   2   3   4  0  0
  250 100   0   0   0   0  0  0
  251 790   0   5   0   0  1  0
  252 599   0   6   7   8  0  0
  253   0   0   0   0   0  0  1
  254 554  43   0   0   1  0  0
  255 230   0   2   3   4  0  0
  256 100   0   0   0   0  0  0
  257 790   0   5   0   0  1  0
  258 599   0   6   7   8  0  0
  259   0   0   0   0   0  0  1
  260 554  44   0   0   1  0  0
  261 230   0   2   3   4  0  0
  262 100   0   0   0   0  0  0
  263 790   0   5   0   0  1  0
  264 599   0   6   7   8  0  0
  265   0   0   0   0   0  0  1
  266 554  45   0   0   1  0  0
  267 230   0   2   9   4  0  0
  268 100   0   0   0   0  0  0
  269 790   0   5   0   0  2  0
  270 599   0   6  10   8  0  0
  271   0   0   0   0   0  0  1
  272 554  46   0   0   1  0  0
  273 230   0   2   9   4  0  0
  274 100   0   0   0   0  0  0
  275 790   0   5   0   0  2  0
  276 599   0   6  10   8  0  0
  277   0   0   0   0   0  0  1
  278 554  47   0   0   1  0  0
  279 230   0   2   9   4  0  0
  280 100   0   0   0   0  0  0
  281 790   0   5   0   0  2  0
  282 599   0   6  10   8  0  0
  283   0   0   0   0   0  0  1
  284 554  48   0   0   1  0  0
  285 230   0   2   9   4  0  0
  286 100   0   0   0   0  0  0
  287 790   0   5   0   0  2  0
  288 599   0   6  10   8  0  0
  289   0   0   0   0   0  0  1
  290 554  49   0   0   1  0  0
  291 230   0   2   9   4  0  0
  292 100   0   0   0   0  0  0
  293 790   0   5   0   0  2  0
  294 599   0   6  10   8  0  0
  295   0   0   0   0   0  0  1
  296 554  50   0   0   1  0  0
  297 230   0   2   9   4  0  0
  298 100   0   0   0   0  0  0
  299 790   0   5   0   0  2  0
  300 599   0   6  10   8  0  0
[RF]
1      446.619 1 2 0 1000 108 0 0 -43000 272.219 e
2      446.619 1 2 0 1000 108 0 0 -39000 247.086 e
3      446.619 1 2 0 1000 108 0 0 -35000 221.954 e
4      446.619 1 2 0 1000 108 0 0 -31000 196.821 e
5      446.619 1 2 0 1000 108 0 0 -27000 171.688 e
6      446.619 1 2 0 1000 108 0 0 -23000 146.555 e
7      446.619 1 2 0 1000 108 0 0 -19000 121.423 e
8      446.619 1 2 0 1000 108 0 0 -15000 96.2898 e
9      446.619 1 2 0 1000 108 0 0 -11000 71.1571 e
10      446.619 1 2 0 1000 108 0 0 -7000 46.0243 e
11      446.619 1 2 0 1000 108 0 0 -3000 20.8916 e
12      446.619 1 2 0 1000 108 0 0 1000 -4.24115 e
13      446.619 1 2 0 1000 108 0 0 5000 -29.3739 e
14      446.619 1 2 0 1000 108 0 0 9000 -54.5066 e
15      446.619 1 2 0 1000 108 0 0 13000 -79.6394 e
16      446.619 1 2 0 1000 108 0 0 17000 -104.772 e
17      446.619 1 2 0 1000 108 0 0 21000 -129.905 e
18      446.619 1 2 0 1000 108 0 0 25000 -155.038 e
19      446.619 1 2 0 1000 108 0 0 29000 -180.17 e
20      446.619 1 2 0 1000 108 0 0 33000 -205.303 e
21      446.619 1 2 0 1000 108 0 0 37000 -230.436 e
22      446.619 1 2 0 1000 108 0 0 41000 -255.569 e
23      446.619 1 2 0 1000 108 0 0 -41000 259.653 e
24      446.619 1 2 0 1000 108 0 0 -37000 234.52 e
25      446.619 1 2 0 1000 108 0 0 -33000 209.387 e
26      446.619 1 2 0 1000 108 0 0 -29000 184.254 e
27      446.619 1 2 0 1000 108 0 0 -25000 159.122 e
28      446.619 1 2 0 1000 108 0 0 -21000 133.989 e
29      446.619 1 2 0 1000 108 0 0 -17000 108.856 e
30      446.619 1 2 0 1000 108 0 0 -13000 83.7234 e
31      446.619 1 2 0 1000 108 0 0 -9000 58.5907 e
32      446.619 1 2 0 1000 108 0 0 -5000 33.458 e
33      446.619 1 2 0 1000 108 0 0 -1000 8.32522 e
34      446.619 1 2 0 1000 108 0 0 3000 -16.8075 e
35      446.619 1 2 0 1000 108 0 0 7000 -41.9403 e
36      446.619 1 2 0 1000 108 0 0 11000 -67.073 e
37      446.619 1 2 0 1000 108 0 0 15000 -92.2057 e
38      446.619 1 2 0 1000 108 0 0 19000 -117.338 e
39      446.619 1 2 0 1000 108 0 0 23000 -142.471 e
40      446.619 1 2 0 1000 108 0 0 27000 -167.604 e
41      446.619 1 2 0 1000 108 0 0 31000 -192.737 e
42      446.619 1 2 0 1000 108 0 0 35000 -217.869 e
43      446.619 1 2 0 1000 108 0 0 39000 -243.002 e
44      446.619 1 2 0 1000 108 0 0 43000 -268.135 e
45      446.619 1 2 0 1000 108 0 0 -43000 276.303 e
46      446.619 1 2 0 1000 108 0 0 -39000 251.17 e
47      446.619 1 2 0 1000 108 0 0 -35000 226.038 e
48      446.619 1 2 0 1000 108 0 0 -31000 200.905 e
49      446.619 1 2 0 1000 108 0 0 -27000 175.772 e
50      446.619 1 2 0 1000 108 0 0 -23000 150.639 e
51      446.619 1 2 0 1000 108 0 0 -19000 125.507 e
52      446.619 1 2 0 1000 108 0 0 -15000 100.374 e
53      446.619 1 2 0 1000 108 0 0 -11000 75.2411 e
54      446.619 1 2 0 1000 108 0 0 -7000 50.1084 e
55      446.619 1 2 0 1000 108 0 0 -3000 24.9757 e
56      446.619 1 2 0 1000 108 0 0 1000 -0.15708 e
57      446.619 1 2 0 1000 108 0 0 5000 -25.2898 e
58      446.619 1 2 0 1000 108 0 0 9000 -50.4226 e
59      446.619 1 2 0 1000 108 0 0 13000 -75.5553 e
60      446.619 1 2 0 1000 108 0 0 17000 -100.688 e
61      446.619 1 2 0 1000 108 0 0 21000 -125.821 e
62      446.619 1 2 0 1000 108 0 0 25000 -150.954 e
63      446.619 1 2 0 1000 108 0 0 29000 -176.086 e
64      446.619 1 2 0 1000 108 0 0 33000 -201.219 e
65      446.619 1 2 0 1000 108 0 0 37000 -226.352 e
66      446.619 1 2 0 1000 108 0 0 41000 -251.484 e
67      446.619 1 2 0 1000 108 0 0 -41000 263.737 e
68      446.619 1 2 0 1000 108 0 0 -37000 238.604 e
69      446.619 1 2 0 1000 108 0 0 -33000 213.471 e
70      446.619 1 2 0 1000 108 0 0 -29000 188.338 e
71      446.619 1 2 0 1000 108 0 0 -25000 163.206 e
72      446.619 1 2 0 1000 108 0 0 -21000 138.073 e
73      446.619 1 2 0 1000 108 0 0 -17000 112.94 e
74      446.619 1 2 0 1000 108 0 0 -13000 87.8075 e
75      446.619 1 2 0 1000 108 0 0 -9000 62.6748 e
76      446.619 1 2 0 1000 108 0 0 -5000 37.542 e
77      446.619 1 2 0 1000 108 0 0 -1000 12.4093 e
78      446.619 1 2 0 1000 108 0 0 3000 -12.7235 e
79      446.619 1 2 0 1000 108 0 0 7000 -37.8562 e
80      446.619 1 2 0 1000 108 0 0 11000 -62.9889 e
81      446.619 1 2 0 1000 108 0 0 15000 -88.1217 e
82      446.619 1 2 0 1000 108 0 0 19000 -113.254 e
83      446.619 1 2 0 1000 108 0 0 23000 -138.387 e
84      446.619 1 2 0 1000 108 0 0 27000 -163.52 e
85      446.619 1 2 0 1000 108 0 0 31000 -188.653 e
86      446.619 1 2 0 1000 108 0 0 35000 -213.785 e
87      446.619 1 2 0 1000 108 0 0 39000 -238.918 e
88      446.619 1 2 0 1000 108 0 0 43000 -264.051 e
89      446.619 1 2 0 1000 108 0 0 -43000 276.146 e
90      446.619 1 2 0 1000 108 0 0 -39000 251.013 e
91      446.619 1 2 0 1000 108 0 0 -35000 225.881 e
92      446.619 1 2 0 1000 108 0 0 -31000 200.748 e
93      446.619 1 2 0 1000 108 0 0 -27000 175.615 e
94      446.619 1 2 0 1000 108 0 0 -23000 150.482 e
95      446.619 1 2 0 1000 108 0 0 -19000 125.35 e
96      446.619 1 2 0 1000 108 0 0 -15000 100.217 e
97      446.619 1 2 0 1000 108 0 0 -11000 75.0841 e
98      446.619 1 2 0 1000 108 0 0 -7000 49.9513 e
99      446.619 1 2 0 1000 108 0 0 -3000 24.8186 e
100      446.619 1 2 0 1000 108 0 0 1000 -0.314159 e
101      446.619 1 2 0 1000 108 0 0 5000 -25.4469 e
102      446.619 1 2 0 1000 108 0 0 9000 -50.5796 e
103      446.619 1 2 0 1000 108 0 0 13000 -75.7124 e
104      446.619 1 2 0 1000 108 0 0 17000 -100.845 e
105      446.619 1 2 0 1000 108 0 0 21000 -125.978 e
106      446.619 1 2 0 1000 108 0 0 25000 -151.111 e
107      446.619 1 2 0 1000 108 0 0 29000 -176.243 e
108      446.619 1 2 0 1000 108 0 0 33000 -201.376 e
109      446.619 1 2 0 1000 108 0 0 37000 -226.509 e
110      446.619 1 2 0 1000 108 0 0 41000 -251.642 e
111      446.619 1 2 0 1000 108 0 0 -41000 263.58 e
112      446.619 1 2 0 1000 108 0 0 -37000 238.447 e
113      446.619 1 2 0 1000 108 0 0 -33000 213.314 e
114      446.619 1 2 0 1000 108 0 0 -29000 188.181 e
115      446.619 1 2 0 1000 108 0 0 -25000 163.049 e
116      446.619 1 2 0 1000 108 0 0 -21000 137.916 e
117      446.619 1 2 0 1000 108 0 0 -17000 112.783 e
118      446.619 1 2 0 1000 108 0 0 -13000 87.6504 e
119      446.619 1 2 0 1000 108 0 0 -9000 62.5177 e
120      446.619 1 2 0 1000 108 0 0 -5000 37.385 e
121      446.619 1 2 0 1000 108 0 0 -1000 12.2522 e
122      446.619 1 2 0 1000 108 0 0 3000 -12.8805 e
123      446.619 1 2 0 1000 108 0 0 7000 -38.0133 e
124      446.619 1 2 0 1000 108 0 0 11000 -63.146 e
125      446.619 1 2 0 1000 108 0 0 15000 -88.2788 e
126      446.619 1 2 0 1000 108 0 0 19000 -113.411 e
127      446.619 1 2 0 1000 108 0 0 23000 -138.544 e
128      446.619 1 2 0 1000 108 0 0 27000 -163.677 e
129      446.619 1 2 0 1000 108 0 0 31000 -188.81 e
130      446.619 1 2 0 1000 108 0 0 35000 -213.942 e
131      446.619 1 2 0 1000 108 0 0 39000 -239.075 e
132      446.619 1 2 0 1000 108 0 0 43000 -264.208 e
133      446.619 1 2 0 1000 108 0 0 -43000 271.748 e
134      446.619 1 2 0 1000 108 0 0 -39000 246.615 e
135      446.619 1 2 0 1000 108 0 0 -35000 221.482 e
136      446.619 1 2 0 1000 108 0 0 -31000 196.35 e
137      446.619 1 2 0 1000 108 0 0 -27000 171.217 e
138      446.619 1 2 0 1000 108 0 0 -23000 146.084 e
139      446.619 1 2 0 1000 108 0 0 -19000 120.951 e
140      446.619 1 2 0 1000 108 0 0 -15000 95.8186 e
141      446.619 1 2 0 1000 108 0 0 -11000 70.6858 e
142      446.619 1 2 0 1000 108 0 0 -7000 45.5531 e
143      446.619 1 2 0 1000 108 0 0 -3000 20.4204 e
144      446.619 1 2 0 1000 108 0 0 1000 -4.71239 e
145      446.619 1 2 0 1000 108 0 0 5000 -29.8451 e
146      446.619 1 2 0 1000 108 0 0 9000 -54.9779 e
147      446.619 1 2 0 1000 108 0 0 13000 -80.1106 e
148      446.619 1 2 0 1000 108 0 0 17000 -105.243 e
149      446.619 1 2 0 1000 108 0 0 21000 -130.376 e
150      446.619 1 2 0 1000 108 0 0 25000 -155.509 e
151      446.619 1 2 0 1000 108 0 0 29000 -180.642 e
152      446.619 1 2 0 1000 108 0 0 33000 -205.774 e
153      446.619 1 2 0 1000 108 0 0 37000 -230.907 e
154      446.619 1 2 0 1000 108 0 0 41000 -256.04 e
155      446.619 1 2 0 1000 108 0 0 -41000 259.181 e
156      446.619 1 2 0 1000 108 0 0 -37000 234.049 e
157      446.619 1 2 0 1000 108 0 0 -33000 208.916 e
158      446.619 1 2 0 1000 108 0 0 -29000 183.783 e
159      446.619 1 2 0 1000 108 0 0 -25000 158.65 e
160      446.619 1 2 0 1000 108 0 0 -21000 133.518 e
161      446.619 1 2 0 1000 108 0 0 -17000 108.385 e
162      446.619 1 2 0 1000 108 0 0 -13000 83.2522 e
163      446.619 1 2 0 1000 108 0 0 -9000 58.1195 e
164      446.619 1 2 0 1000 108 0 0 -5000 32.9867 e
165      446.619 1 2 0 1000 108 0 0 -1000 7.85398 e
166      446.619 1 2 0 1000 108 0 0 3000 -17.2788 e
167      446.619 1 2 0 1000 108 0 0 7000 -42.4115 e
168      446.619 1 2 0 1000 108 0 0 11000 -67.5442 e
169      446.619 1 2 0 1000 108 0 0 15000 -92.677 e
170      446.619 1 2 0 1000 108 0 0 19000 -117.81 e
171      446.619 1 2 0 1000 108 0 0 23000 -142.942 e
172      446.619 1 2 0 1000 108 0 0 27000 -168.075 e
173      446.619 1 2 0 1000 108 0 0 31000 -193.208 e
174      446.619 1 2 0 1000 108 0 0 35000 -218.341 e
175      446.619 1 2 0 1000 108 0 0 39000 -243.473 e
176      446.619 1 2 0 1000 108 0 0 43000 -268.606 e
177      446.619 1 2 0 1000 108 0 0 -43000 275.675 e
178      446.619 1 2 0 1000 108 0 0 -39000 250.542 e
179      446.619 1 2 0 1000 108 0 0 -35000 225.409 e
180      446.619 1 2 0 1000 108 0 0 -31000 200.277 e
181      446.619 1 2 0 1000 108 0 0 -27000 175.144 e
182      446.619 1 2 0 1000 108 0 0 -23000 150.011 e
183      446.619 1 2 0 1000 108 0 0 -19000 124.878 e
184      446.619 1 2 0 1000 108 0 0 -15000 99.7456 e
185      446.619 1 2 0 1000 108 0 0 -11000 74.6128 e
186      446.619 1 2 0 1000 108 0 0 -7000 49.4801 e
187      446.619 1 2 0 1000 108 0 0 -3000 24.3473 e
188      446.619 1 2 0 1000 108 0 0 1000 -0.785398 e
189      446.619 1 2 0 1000 108 0 0 5000 -25.9181 e
190      446.619 1 2 0 1000 108 0 0 9000 -51.0509 e
191      446.619 1 2 0 1000 108 0 0 13000 -76.1836 e
192      446.619 1 2 0 1000 108 0 0 17000 -101.316 e
193      446.619 1 2 0 1000 108 0 0 21000 -126.449 e
194      446.619 1 2 0 1000 108 0 0 25000 -151.582 e
195      446.619 1 2 0 1000 108 0 0 29000 -176.715 e
196      446.619 1 2 0 1000 108 0 0 33000 -201.847 e
197      446.619 1 2 0 1000 108 0 0 37000 -226.98 e
198      446.619 1 2 0 1000 108 0 0 41000 -252.113 e
199      446.619 1 2 0 1000 108 0 0 -41000 263.108 e
200      446.619 1 2 0 1000 108 0 0 -37000 237.976 e
201      446.619 1 2 0 1000 108 0 0 -33000 212.843 e
202      446.619 1 2 0 1000 108 0 0 -29000 187.71 e
203      446.619 1 2 0 1000 108 0 0 -25000 162.577 e
204      446.619 1 2 0 1000 108 0 0 -21000 137.445 e
205      446.619 1 2 0 1000 108 0 0 -17000 112.312 e
206      446.619 1 2 0 1000 108 0 0 -13000 87.1792 e
207      446.619 1 2 0 1000 108 0 0 -9000 62.0465 e
208      446.619 1 2 0 1000 108 0 0 -5000 36.9137 e
209      446.619 1 2 0 1000 108 0 0 -1000 11.781 e
210      446.619 1 2 0 1000 108 0 0 3000 -13.3518 e
211      446.619 1 2 0 1000 108 0 0 7000 -38.4845 e
212      446.619 1 2 0 1000 108 0 0 11000 -63.6173 e
213      446.619 1 2 0 1000 108 0 0 15000 -88.75 e
214      446.619 1 2 0 1000 108 0 0 19000 -113.883 e
215      446.619 1 2 0 1000 108 0 0 23000 -139.015 e
216      446.619 1 2 0 1000 108 0 0 27000 -164.148 e
217      446.619 1 2 0 1000 108 0 0 31000 -189.281 e
218      446.619 1 2 0 1000 108 0 0 35000 -214.414 e
219      446.619 1 2 0 1000 108 0 0 39000 -239.546 e
220      446.619 1 2 0 1000 108 0 0 43000 -264.679 e
221      446.619 1 2 0 1000 108 0 0 -43000 275.361 e
222      446.619 1 2 0 1000 108 0 0 -39000 250.228 e
223      446.619 1 2 0 1000 108 0 0 -35000 225.095 e
224      446.619 1 2 0 1000 108 0 0 -31000 199.962 e
225      446.619 1 2 0 1000 108 0 0 -27000 174.83 e
226      446.619 1 2 0 1000 108 0 0 -23000 149.697 e
227      446.619 1 2 0 1000 108 0 0 -19000 124.564 e
228      446.619 1 2 0 1000 108 0 0 -15000 99.4314 e
229      446.619 1 2 0 1000 108 0 0 -11000 74.2987 e
230      446.619 1 2 0 1000 108 0 0 -7000 49.1659 e
231      446.619 1 2 0 1000 108 0 0 -3000 24.0332 e
232      446.619 1 2 0 1000 108 0 0 1000 -1.09956 e
233      446.619 1 2 0 1000 108 0 0 5000 -26.2323 e
234      446.619 1 2 0 1000 108 0 0 9000 -51.365 e
235      446.619 1 2 0 1000 108 0 0 13000 -76.4978 e
236      446.619 1 2 0 1000 108 0 0 17000 -101.631 e
237      446.619 1 2 0 1000 108 0 0 21000 -126.763 e
238      446.619 1 2 0 1000 108 0 0 25000 -151.896 e
239      446.619 1 2 0 1000 108 0 0 29000 -177.029 e
240      446.619 1 2 0 1000 108 0 0 33000 -202.161 e
241      446.619 1 2 0 1000 108 0 0 37000 -227.294 e
242      446.619 1 2 0 1000 108 0 0 41000 -252.427 e
243      446.619 1 2 0 1000 108 0 0 -41000 262.794 e
244      446.619 1 2 0 1000 108 0 0 -37000 237.661 e
245      446.619 1 2 0 1000 108 0 0 -33000 212.529 e
246      446.619 1 2 0 1000 108 0 0 -29000 187.396 e
247      446.619 1 2 0 1000 108 0 0 -25000 162.263 e
248      446.619 1 2 0 1000 108 0 0 -21000 137.131 e
249      446.619 1 2 0 1000 108 0 0 -17000 111.998 e
250      446.619 1 2 0 1000 108 0 0 -13000 86.865 e
251      446.619 1 2 0 1000 108 0 0 -9000 61.7323 e
252      446.619 1 2 0 1000 108 0 0 -5000 36.5996 e
253      446.619 1 2 0 1000 108 0 0 -1000 11.4668 e
254      446.619 1 2 0 1000 108 0 0 3000 -13.6659 e
255      446.619 1 2 0 1000 108 0 0 7000 -38.7987 e
256      446.619 1 2 0 1000 108 0 0 11000 -63.9314 e
257      446.619 1 2 0 1000 108 0 0 15000 -89.0642 e
258      446.619 1 2 0 1000 108 0 0 19000 -114.197 e
259      446.619 1 2 0 1000 108 0 0 23000 -139.33 e
260      446.619 1 2 0 1000 108 0 0 27000 -164.462 e
261      446.619 1 2 0 1000 108 0 0 31000 -189.595 e
262      446.619 1 2 0 1000 108 0 0 35000 -214.728 e
263      446.619 1 2 0 1000 108 0 0 39000 -239.861 e
264      446.619 1 2 0 1000 108 0 0 43000 -264.993 e
265      446.619 1 2 0 1000 108 0 0 -43000 270.805 e
266      446.619 1 2 0 1000 108 0 0 -39000 245.673 e
267      446.619 1 2 0 1000 108 0 0 -35000 220.54 e
268      446.619 1 2 0 1000 108 0 0 -31000 195.407 e
269      446.619 1 2 0 1000 108 0 0 -27000 170.274 e
270      446.619 1 2 0 1000 108 0 0 -23000 145.142 e
271      446.619 1 2 0 1000 108 0 0 -19000 120.009 e
272      446.619 1 2 0 1000 108 0 0 -15000 94.8761 e
273      446.619 1 2 0 1000 108 0 0 -11000 69.7434 e
274      446.619 1 2 0 1000 108 0 0 -7000 44.6106 e
275      446.619 1 2 0 1000 108 0 0 -3000 19.4779 e
276      446.619 1 2 0 1000 108 0 0 1000 -5.65487 e
277      446.619 1 2 0 1000 108 0 0 5000 -30.7876 e
278      446.619 1 2 0 1000 108 0 0 9000 -55.9203 e
279      446.619 1 2 0 1000 108 0 0 13000 -81.0531 e
280      446.619 1 2 0 1000 108 0 0 17000 -106.186 e
281      446.619 1 2 0 1000 108 0 0 21000 -131.319 e
282      446.619 1 2 0 1000 108 0 0 25000 -156.451 e
283      446.619 1 2 0 1000 108 0 0 29000 -181.584 e
284      446.619 1 2 0 1000 108 0 0 33000 -206.717 e
285      446.619 1 2 0 1000 108 0 0 37000 -231.85 e
286      446.619 1 2 0 1000 108 0 0 41000 -256.982 e
287      446.619 1 2 0 1000 108 0 0 -41000 258.239 e
288      446.619 1 2 0 1000 108 0 0 -37000 233.106 e
289      446.619 1 2 0 1000 108 0 0 -33000 207.973 e
290      446.619 1 2 0 1000 108 0 0 -29000 182.841 e
291      446.619 1 2 0 1000 108 0 0 -25000 157.708 e
292      446.619 1 2 0 1000 108 0 0 -21000 132.575 e
293      446.619 1 2 0 1000 108 0 0 -17000 107.442 e
294      446.619 1 2 0 1000 108 0 0 -13000 82.3097 e
295      446.619 1 2 0 1000 108 0 0 -9000 57.177 e
296      446.619 1 2 0 1000 108 0 0 -5000 32.0442 e
297      446.619 1 2 0 1000 108 0 0 -1000 6.9115 e
298      446.619 1 2 0 1000 108 0 0 3000 -18.2212 e
299      446.619 1 2 0 1000 108 0 0 7000 -43.354 e
300      446.619 1 2 0 1000 108 0 0 11000 -68.4867 e
301      446.619 1 2 0 1000 108 0 0 15000 -93.6195 e
302      446.619 1 2 0 1000 108 0 0 19000 -118.752 e
303      446.619 1 2 0 1000 108 0 0 23000 -143.885 e
304      446.619 1 2 0 1000 108 0 0 27000 -169.018 e
305      446.619 1 2 0 1000 108 0 0 31000 -194.15 e
306      446.619 1 2 0 1000 108 0 0 35000 -219.283 e
307      446.619 1 2 0 1000 108 0 0 39000 -244.416 e
308      446.619 1 2 0 1000 108 0 0 43000 -269.549 e
309      446.619 1 2 0 1000 108 0 0 -43000 274.575 e
310      446.619 1 2 0 1000 108 0 0 -39000 249.442 e
311      446.619 1 2 0 1000 108 0 0 -35000 224.31 e
312      446.619 1 2 0 1000 108 0 0 -31000 199.177 e
313      446.619 1 2 0 1000 108 0 0 -27000 174.044 e
314      446.619 1 2 0 1000 108 0 0 -23000 148.911 e
315      446.619 1 2 0 1000 108 0 0 -19000 123.779 e
316      446.619 1 2 0 1000 108 0 0 -15000 98.646 e
317      446.619 1 2 0 1000 108 0 0 -11000 73.5133 e
318      446.619 1 2 0 1000 108 0 0 -7000 48.3805 e
319      446.619 1 2 0 1000 108 0 0 -3000 23.2478 e
320      446.619 1 2 0 1000 108 0 0 1000 -1.88496 e
321      446.619 1 2 0 1000 108 0 0 5000 -27.0177 e
322      446.619 1 2 0 1000 108 0 0 9000 -52.1504 e
323      446.619 1 2 0 1000 108 0 0 13000 -77.2832 e
324      446.619 1 2 0 1000 108 0 0 17000 -102.416 e
325      446.619 1 2 0 1000 108 0 0 21000 -127.549 e
326      446.619 1 2 0 1000 108 0 0 25000 -152.681 e
327      446.619 1 2 0 1000 108 0 0 29000 -177.814 e
328      446.619 1 2 0 1000 108 0 0 33000 -202.947 e
329      446.619 1 2 0 1000 108 0 0 37000 -228.08 e
330      446.619 1 2 0 1000 108 0 0 41000 -253.212 e
331      446.619 1 2 0 1000 108 0 0 -41000 262.009 e
332      446.619 1 2 0 1000 108 0 0 -37000 236.876 e
333      446.619 1 2 0 1000 108 0 0 -33000 211.743 e
334      446.619 1 2 0 1000 108 0 0 -29000 186.611 e
335      446.619 1 2 0 1000 108 0 0 -25000 161.478 e
336      446.619 1 2 0 1000 108 0 0 -21000 136.345 e
337      446.619 1 2 0 1000 108 0 0 -17000 111.212 e
338      446.619 1 2 0 1000 108 0 0 -13000 86.0796 e
339      446.619 1 2 0 1000 108 0 0 -9000 60.9469 e
340      446.619 1 2 0 1000 108 0 0 -5000 35.8142 e
341      446.619 1 2 0 1000 108 0 0 -1000 10.6814 e
342      446.619 1 2 0 1000 108 0 0 3000 -14.4513 e
343      446.619 1 2 0 1000 108 0 0 7000 -39.5841 e
344      446.619 1 2 0 1000 108 0 0 11000 -64.7168 e
345      446.619 1 2 0 1000 108 0 0 15000 -89.8495 e
346      446.619 1 2 0 1000 108 0 0 19000 -114.982 e
347      446.619 1 2 0 1000 108 0 0 23000 -140.115 e
348      446.619 1 2 0 1000 108 0 0 27000 -165.248 e
349      446.619 1 2 0 1000 108 0 0 31000 -190.381 e
350      446.619 1 2 0 1000 108 0 0 35000 -215.513 e
351      446.619 1 2 0 1000 108 0 0 39000 -240.646 e
352      446.619 1 2 0 1000 108 0 0 43000 -265.779 e
353      446.619 1 2 0 1000 108 0 0 -43000 274.104 e
354      446.619 1 2 0 1000 108 0 0 -39000 248.971 e
355      446.619 1 2 0 1000 108 0 0 -35000 223.838 e
356      446.619 1 2 0 1000 108 0 0 -31000 198.706 e
357      446.619 1 2 0 1000 108 0 0 -27000 173.573 e
358      446.619 1 2 0 1000 108 0 0 -23000 148.44 e
359      446.619 1 2 0 1000 108 0 0 -19000 123.308 e
360      446.619 1 2 0 1000 108 0 0 -15000 98.1748 e
361      446.619 1 2 0 1000 108 0 0 -11000 73.042 e
362      446.619 1 2 0 1000 108 0 0 -7000 47.9093 e
363      446.619 1 2 0 1000 108 0 0 -3000 22.7765 e
364      446.619 1 2 0 1000 108 0 0 1000 -2.35619 e
365      446.619 1 2 0 1000 108 0 0 5000 -27.4889 e
366      446.619 1 2 0 1000 108 0 0 9000 -52.6217 e
367      446.619 1 2 0 1000 108 0 0 13000 -77.7544 e
368      446.619 1 2 0 1000 108 0 0 17000 -102.887 e
369      446.619 1 2 0 1000 108 0 0 21000 -128.02 e
370      446.619 1 2 0 1000 108 0 0 25000 -153.153 e
371      446.619 1 2 0 1000 108 0 0 29000 -178.285 e
372      446.619 1 2 0 1000 108 0 0 33000 -203.418 e
373      446.619 1 2 0 1000 108 0 0 37000 -228.551 e
374      446.619 1 2 0 1000 108 0 0 41000 -253.684 e
375      446.619 1 2 0 1000 108 0 0 -41000 261.538 e
376      446.619 1 2 0 1000 108 0 0 -37000 236.405 e
377      446.619 1 2 0 1000 108 0 0 -33000 211.272 e
378      446.619 1 2 0 1000 108 0 0 -29000 186.139 e
379      446.619 1 2 0 1000 108 0 0 -25000 161.007 e
380      446.619 1 2 0 1000 108 0 0 -21000 135.874 e
381      446.619 1 2 0 1000 108 0 0 -17000 110.741 e
